time(s),C_Active,L_Active,itp_Po,itp_Temp,itp_HR,itp_RR,itp_HRV
61.790964,0.0010800277,,-29.172239,0.025546028,136.30787,57.445019,0.013266934
61.890964,0.0011350626,,-29.172239,0.025902864,136.35435,57.445019,0.013325034
61.990964,0.0011900976,,-29.172239,0.026259701,136.41248,57.445019,0.013383135
62.090964,0.0012451325,,-29.172239,0.026592187,136.4706,57.445019,0.013441236
62.190964,0.0013001675,,-29.172239,0.026912965,136.52872,57.445019,0.013487928
62.290964,0.0013552024,0.059785915,-29.172239,0.027233742,136.58685,57.445019,0.013520231
62.390964,0.0013943675,0.053919968,-29.172239,0.027554519,136.61256,57.445019,0.013552533
62.490964,0.0013851181,0.04805402,-29.172239,0.027875296,136.62124,57.445019,0.013584836
62.590964,0.0013758688,0.042188072,-29.172239,0.028196074,136.62991,57.445019,0.013616683
62.690964,0.0013666194,0.036322124,-29.172239,0.028516851,136.63859,57.445019,0.013616683
62.790964,0.00135737,0.030456176,-29.172362,0.028837628,136.6558,57.445019,0.013616683
62.890964,0.0013481207,0.024590228,-29.172776,0.029158406,136.6937,57.445019,0.013616683
62.990964,0.0013388713,0.01872428,-29.17319,0.029479183,136.73161,57.445019,0.013616683
63.090964,0.0013296219,0.012858332,-29.173603,0.02979996,136.76952,57.445019,0.013616683
63.190964,0.0013203726,0.0069923846,-29.174017,0.030120738,136.80742,57.445019,0.013616683
63.290964,0.0013111232,0.0047632433,-29.174309,0.030441515,136.75433,57.445019,0.013616683
63.390964,0.0013301573,0.0046712157,-29.174312,0.030762292,136.69804,57.445019,0.013616683
63.490964,0.0013699332,0.0045791882,-29.174314,0.031083069,136.64175,57.445019,0.013616683
63.590964,0.001409709,0.0044871606,-29.174317,0.031403847,136.58546,57.445019,0.013616683
63.690964,0.0014494848,0.0043951331,-29.174319,0.031724624,136.54564,57.445019,0.013616683
63.790964,0.0014892607,0.0043031055,-29.174515,0.032045401,136.5159,57.445019,0.013616683
63.890964,0.0015290365,0.0042110779,-29.175171,0.032366179,136.48617,57.445019,0.013616683
63.990964,0.0015688123,0.0041190504,-29.175827,0.032686956,136.45643,57.445019,0.013616683
64.090964,0.0016085881,0.0040270228,-29.176483,0.033007733,136.4347,57.445019,0.013616683
64.190964,0.001648364,0.0040971582,-29.177139,0.033328511,136.4347,57.445019,0.013616683
64.290964,0.0016881398,0.0067749348,-29.177602,0.033649288,136.4347,57.445019,0.013616683
64.390964,0.0016349221,0.0094527113,-29.177602,0.033970065,136.4347,57.445019,0.013616683
64.490964,0.0015721725,0.012130488,-29.177602,0.034290842,136.4347,57.445019,0.013616683
64.590964,0.0015094228,0.014808264,-29.177602,0.03461162,136.4387,57.445019,0.013616683
64.690964,0.0014466732,0.017486041,-29.177602,0.034932397,136.44306,57.445019,0.013616683
64.790964,0.0013839235,0.020163818,-29.177602,0.035253174,136.44741,57.445019,0.013616683
64.890964,0.0013211739,0.022841594,-29.177602,0.035573952,136.45177,57.445019,0.013679516
64.990964,0.0012584242,0.025519371,-29.177602,0.035894729,136.45364,57.445019,0.013748318
65.090964,0.0011956746,0.028197147,-29.177602,0.036215506,136.45364,57.445019,0.013817121
65.190964,0.001132925,0.028312377,-29.177602,0.036536284,136.45364,57.445019,0.013885924
65.290964,0.0010856223,0.025732483,-29.179056,0.036857061,136.45364,57.445019,0.013944212
65.390964,0.0010881371,0.02315259,-29.184021,0.037177838,136.45664,57.445019,0.013991859
65.490964,0.0010906518,0.020572697,-29.188985,0.037498616,136.47002,57.445019,0.014039505
65.590964,0.0010931666,0.017992803,-29.19395,0.037819393,136.48339,57.445019,0.014087152
65.690964,0.0010956814,0.01541291,-29.198915,0.03814017,136.49676,57.445019,0.014136519
65.790964,0.0010981961,0.012833017,-29.2025,0.038460947,136.51013,57.445019,0.014206244
65.890964,0.0011007109,0.010253124,-29.202739,0.038781725,136.48846,57.445019,0.014275968
65.990964,0.0011032257,0.0076732302,-29.202978,0.039102502,136.46196,57.445019,0.014345692
66.090964,0.0011057404,0.0050933369,-29.203217,0.039378015,136.43546,57.445019,0.014415417
66.190964,0.0011082552,0.0045579218,-29.203457,0.039631762,136.40896,57.445019,0.014453703
66.290964,0.0011439628,0.0042074584,-29.203403,0.039885509,136.3942,57.445019,0.014475654
66.390964,0.0012051632,0.003856995,-29.202637,0.040139257,136.38986,57.445019,0.014497604
66.490964,0.0012663636,0.0035065316,-29.201871,0.040393004,136.38552,57.445019,0.014519555
66.590964,0.001327564,0.0031560682,-29.201105,0.040646751,136.38119,57.445019,0.014555087
66.690964,0.0013887644,0.0028056048,-29.200339,0.040900498,136.37607,57.445019,0.014634564
66.790964,0.0014499647,0.0024551413,-29.199043,0.041154245,136.36737,57.445019,0.01471404
66.890964,0.0015111651,0.0021046779,-29.19645,0.041407992,136.35867,57.445019,0.014793516
66.990964,0.0015723655,0.0017542145,-29.193857,0.04166174,136.34997,57.445019,0.014872992
67.090964,0.0016335659,0.001490644,-29.191265,0.041915487,136.34127,57.445019,0.014951694
67.190964,0.0016947663,0.0013918164,-29.188672,0.042169234,136.33975,57.445019,0.015030213
67.290964,0.0017512855,0.0012929887,-29.186418,0.042422981,136.33975,57.445019,0.015108732
67.390964,0.0018072528,0.0011941611,-29.184998,0.042676728,136.33975,57.445019,0.015187251
67.490964,0.00186322,0.0010953335,-29.183578,0.042930476,136.33975,57.445019,0.015263835
67.590964,0.0019191873,0.00099650582,-29.182158,0.043184223,136.36657,57.445019,0.015337133
67.690964,0.0019751545,0.00089767819,-29.180738,0.04343797,136.42519,57.445019,0.015410431
67.790964,0.0020311217,0.00079885056,-29.178952,0.043691717,136.48381,57.445019,0.015483728
67.890964,0.002087089,0.00070002292,-29.17626,0.043945464,136.54243,57.445019,0.015557026
67.990964,0.0021430562,0.00060119529,-29.173569,0.044199211,136.58665,57.445019,0.01556137
68.090964,0.0021990235,0.00059935879,-29.170877,0.044452959,136.52883,57.445019,0.01556137
68.190964,0.0022705537,0.00062591367,-29.168185,0.044706706,136.471,57.445019,0.01556137
68.290964,0.0023963657,0.00065246854,-29.165621,0.044960453,136.41318,57.445019,0.01556137
68.390964,0.0025221776,0.00067902342,-29.163373,0.0452142,136.35536,57.445019,0.015607908
68.490964,0.0026479895,0.0007055783,-29.161125,0.045467947,136.33975,57.445019,0.015697308
68.590964,0.0027738015,0.00073213318,-29.158877,0.045721694,136.33975,57.445019,0.015786708
68.690964,0.0028996134,0.00075868805,-29.156629,0.045975442,136.33975,57.445019,0.015876108
68.790964,0.0030254254,0.00078524293,-29.154809,0.046229189,136.33975,57.445019,0.015956239
68.890964,0.0031512373,0.00081179781,-29.154057,0.046482936,136.33975,57.445019,0.015956239
68.990964,0.0032770493,0.00084483729,-29.153305,0.046736683,136.33975,57.445019,0.015956239
69.090964,0.0034028612,0.00090352452,-29.152553,0.04699043,136.33975,57.445019,0.015956239
69.190964,0.0035823067,0.00096221174,-29.151802,0.047244178,136.33975,57.445019,0.015956239
69.290964,0.0038052171,0.001020899,-29.151264,0.047497925,136.33975,57.445019,0.016050083
69.390964,0.0040281275,0.0010795862,-29.151264,0.047751672,136.29467,57.445019,0.016186836
69.490964,0.0042510379,0.0011382734,-29.151264,0.048005419,136.24639,57.445019,0.01632359
69.590964,0.0044739483,0.0011969607,-29.151264,0.048259166,136.19811,57.445019,0.016460344
69.690964,0.0046968588,0.0012556479,-29.151264,0.048512913,136.14983,57.445019,0.016585547
69.790964,0.0049197692,0.0013143351,-29.150795,0.048766661,136.10175,57.445019,0.016681007
69.890964,0.0051426796,0.0013730223,-29.149149,0.049020408,136.05385,57.445019,0.016776468
69.990964,0.00536559,0.0013803601,-29.147503,0.049274155,136.00595,57.445019,0.016871928
70.090964,0.0055885004,0.0013575482,-29.145856,0.049475672,135.95806,57.445019,0.016967389
70.190964,0.0052653432,0.0013347364,-29.14421,0.049652074,135.91265,57.445019,0.01702292
70.290964,0.0048686208,0.0013119246,-29.147258,0.049828475,135.89489,57.445019,0.01707288
70.390964,0.0044718985,0.0012891128,-29.162144,0.050004877,135.87714,57.445019,0.017122839
70.490964,0.0040751762,0.001266301,-29.177029,0.050181278,135.85939,57.445019,0.017172799
70.590964,0.0036784539,0.0012434891,-29.191915,0.05035768,135.84164,57.445019,0.017186409
70.690964,0.0032817316,0.0012206773,-29.2068,0.050534081,135.81555,57.445019,0.017161448
70.790964,0.0028850093,0.0011978655,-29.221703,0.050710483,135.78482,57.445019,0.017136487
70.890964,0.002488287,0.0011761081,-29.236651,0.050886884,135.75409,57.43655,0.017111526
70.990964,0.0020915647,0.0011713779,-29.251598,0.051063286,135.72336,57.38418,0.017103472
71.090964,0.0017864587,0.0011666478,-29.266545,0.051239687,135.69852,57.331811,0.017241765
71.190964,0.0018255957,0.0011619176,-29.281492,0.051416089,135.69852,57.279441,0.017380059
71.290964,0.0018647328,0.0011571874,-29.295601,0.05159249,135.69852,57.227072,0.017518352
71.390964,0.0019038699,0.0011524573,-29.307579,0.051768892,135.69852,57.174702,0.017656646
71.490964,0.0019430069,0.0011477271,-29.319556,0.051945293,135.69852,57.122333,0.017680477
71.590964,0.001982144,0.001142997,-29.331533,0.052121695,135.69852,57.069963,0.017661238
71.690964,0.002021281,0.0011382668,-29.343511,0.052298096,135.69852,57.017594,0.017641999
71.790964,0.0020604181,0.0011335367,-29.354536,0.052474498,135.69852,56.965224,0.01762276
71.890964,0.0020995552,0.0011583915,-29.363129,0.0526509,135.69852,56.912855,0.017581243
71.990964,0.0021386922,0.0012144659,-29.371722,0.052827301,135.69852,56.860486,0.017499383
72.090964,0.0021381041,0.0012705403,-29.380315,0.053003703,135.69852,56.808116,0.017417522
72.190964,0.0021034305,0.0013266147,-29.388908,0.053180104,135.69852,56.755747,0.017335662
72.290964,0.002068757,0.001382689,-29.395092,0.053356506,135.69852,56.707826,0.017253802
72.390964,0.0020340835,0.0014387634,-29.395092,0.053532907,135.69852,56.707826,0.01742929
72.490964,0.0019994099,0.0014948378,-29.395092,0.053709309,135.69852,56.707826,0.017607505
72.590964,0.0019647364,0.0015509121,-29.395092,0.05388571,135.69852,56.707826,0.01778572
72.690964,0.0019300628,0.0016069865,-29.395092,0.054062112,135.69852,56.707826,0.017963935
72.790964,0.0018953893,0.0016630609,-29.395092,0.054238513,135.69852,56.707826,0.018031223
72.890964,0.0018607158,0.0015563372,-29.395092,0.054414915,135.69852,56.707826,0.018031223
72.990964,0.0018260422,0.0014344297,-29.395092,0.054591316,135.69852,56.707826,0.018031223
73.090964,0.0018298175,0.0013125223,-29.395092,0.054767718,135.69852,56.707826,0.018031223
73.190964,0.0018395003,0.0011906149,-29.395092,0.054944119,135.69852,56.707826,0.018031223
73.290964,0.001849183,0.0010687075,-29.395092,0.055120521,135.69852,56.707826,0.018031223
73.390964,0.0018588658,0.00094680012,-29.395092,0.055296922,135.69852,56.707826,0.018031223
73.490964,0.0018685485,0.00082489271,-29.395092,0.055473324,135.69852,56.707826,0.018031223
73.590964,0.0018782313,0.0007029853,-29.395092,0.055649726,135.69852,56.707826,0.018031223
73.690964,0.001887914,0.00058107789,-29.395092,0.055826127,135.69852,56.728336,0.017831434
73.790964,0.0018975968,0.00049178042,-29.395092,0.056002529,135.69852,56.782687,0.01761848
73.890964,0.0019072795,0.00046492927,-29.395092,0.05617893,135.69852,56.837039,0.017405526
73.990964,0.0019166255,0.00043807812,-29.395092,0.056355332,135.69852,56.89139,0.017192573
74.090964,0.0019245822,0.00041122697,-29.395092,0.056486139,135.69852,56.945742,0.017011505
74.190964,0.0019325389,0.00038437582,-29.395092,0.056595021,135.69853,57.000093,0.016852159
74.290964,0.0019404956,0.00035752467,-29.392865,0.056703904,135.74421,57.054445,0.016692813
74.390964,0.0019484523,0.00033067352,-29.38482,0.056812786,135.78988,57.108796,0.016533467
74.490964,0.001956409,0.00030382237,-29.376775,0.056921669,135.83556,57.163147,0.016410014
74.590964,0.0019643657,0.00027697121,-29.36873,0.057030551,135.88124,57.217499,0.016391302
74.690964,0.0019723225,0.00025012006,-29.360685,0.057139434,135.89508,57.27185,0.01637259
74.790964,0.0019802792,0.00032365449,-29.351895,0.057248316,135.88446,57.326202,0.016353879
74.890964,0.0019882359,0.00042699326,-29.341149,0.057357198,135.87384,57.380553,0.016335167
74.990964,0.0019339453,0.00053033203,-29.330404,0.057466081,135.86322,57.434905,0.016346466
75.090964,0.0018230665,0.0006336708,-29.319658,0.057574963,135.86004,57.445019,0.016360359
75.190964,0.0017121876,0.00073700957,-29.308913,0.057683846,135.90817,57.445019,0.016374251
75.290964,0.0016013087,0.00084034834,-29.299401,0.057792728,135.9563,57.445019,0.016388143
75.390964,0.0014904299,0.00094368711,-29.29314,0.057901611,136.00442,57.445019,0.016395428
75.490964,0.001379551,0.0010470259,-29.286878,0.058010493,136.05255,57.445019,0.016398128
75.590964,0.0012686721,0.0011503646,-29.280617,0.058119376,136.06646,57.445019,0.016400827
75.690964,0.0011577932,0.0012770026,-29.274356,0.058228258,136.06646,57.445019,0.016403527
75.790964,0.0010469144,0.001497159,-29.273885,0.058337141,136.06646,57.445019,0.016417452
75.890964,0.00093603549,0.0017173154,-29.288743,0.058446023,136.06646,57.445019,0.016462232
75.990964,0.00094224353,0.0019374718,-29.303601,0.058554906,136.07919,57.445019,0.016507012
76.090964,0.00096873419,0.0021576282,-29.318459,0.058663788,136.12508,57.445019,0.016551792
76.190964,0.00099522485,0.0023777846,-29.333317,0.05877267,136.17097,57.445019,0.016596573
76.290964,0.0010217155,0.002597941,-29.347471,0.058881553,136.21686,57.445019,0.016597192
76.390964,0.0010482062,0.0028180974,-29.359755,0.058990435,136.26275,57.445019,0.016595392
76.490964,0.0010746968,0.0030382538,-29.372038,0.059099318,136.30688,57.445019,0.016593592
76.590964,0.0011011875,0.0032584102,-29.384321,0.0592082,136.35071,57.445019,0.016591792
76.690964,0.0011276782,0.0079490115,-29.396605,0.059317083,136.39454,57.445019,0.016584903
76.790964,0.0011541688,0.015278967,-29.408084,0.059425965,136.43837,57.445019,0.016575061
76.890964,0.00117982,0.022608922,-29.417414,0.059534848,136.48223,57.445019,0.016565219
76.990964,0.0012016799,0.029938878,-29.426744,0.05964373,136.52613,57.445019,0.016555377
77.090964,0.0012235398,0.037268833,-29.436075,0.059752613,136.57004,57.445019,0.016555207
77.190964,0.0012453997,0.044598789,-29.445405,0.059861495,136.61394,57.445019,0.016575472
77.290964,0.0012672596,0.051928744,-29.453742,0.059970378,136.65781,57.445019,0.016595737
77.390964,0.0012891195,0.0592587,-29.459412,0.06007926,136.69975,57.445019,0.016616002
77.490964,0.0013109794,0.066588655,-29.465083,0.060188142,136.74169,57.445019,0.016636089
77.590964,0.0013328393,0.073183381,-29.470753,0.060297025,136.78362,57.445019,0.016640502
77.690964,0.0013546992,0.067677898,-29.476424,0.060405907,136.82556,57.445019,0.016644914
77.790964,0.0013765591,0.062172414,-29.48056,0.06051479,136.86524,57.428966,0.016649327
77.890964,0.0013870372,0.05666693,-29.48056,0.060623672,136.90347,57.399189,0.016653739
77.990964,0.0013865609,0.051161446,-29.48056,0.060732555,136.9417,57.369412,0.016673117
78.090964,0.0013860847,0.045655962,-29.48056,0.060811123,136.97993,57.339635,0.016698808
78.190964,0.0013856085,0.040150478,-29.48056,0.060875115,137.02047,57.309858,0.016724498
78.290964,0.0013851322,0.034644994,-29.48056,0.060939107,137.06967,57.280081,0.016750189
78.390964,0.001384656,0.02913951,-29.48056,0.061003099,137.11887,57.250304,0.016765618
78.490964,0.0013841798,0.023634026,-29.48056,0.061067091,137.16807,57.220527,0.016765618
78.590964,0.0013837035,0.020567758,-29.48056,0.061131083,137.21727,57.19075,0.016765618
78.690964,0.0013832273,0.020085434,-29.48056,0.061195075,137.2577,57.160973,0.016765618
78.790964,0.001382751,0.019603109,-29.48056,0.061259067,137.29616,57.131196,0.016765014
78.890964,0.001389711,0.019120784,-29.48056,0.061323059,137.33461,57.101419,0.016758937
78.990964,0.0013981048,0.018638459,-29.48056,0.061387051,137.37307,57.071643,0.01675286
79.090964,0.0014064985,0.018156134,-29.48056,0.061451043,137.42096,57.041866,0.016746782
79.190964,0.0014148922,0.017673809,-29.48056,0.061515035,137.48145,57.036095,0.016740705
79.290964,0.0014232859,0.017191484,-29.48056,0.061579027,137.54193,57.036095,0.016620754
79.390964,0.0014316797,0.01670916,-29.48056,0.061643019,137.60241,57.036095,0.016472707
79.490964,0.0014400734,0.016226835,-29.48056,0.061707011,137.66269,57.036095,0.01632466
79.590964,0.0014484671,0.014873479,-29.48056,0.061771003,137.71896,57.036095,0.016176613
79.690964,0.0014568609,0.01343921,-29.48056,0.061834995,137.77522,57.036095,0.016031216
79.790964,0.0014664572,0.01200494,-29.48056,0.061898987,137.83149,57.036095,0.015888261
79.890964,0.0014820918,0.010570671,-29.48056,0.061962979,137.88776,57.036095,0.015745307
79.990964,0.0014977264,0.0091364016,-29.48056,0.062026971,137.95539,57.036095,0.015602352
80.090964,0.0015133609,0.0077021323,-29.48056,0.062090963,138.0285,57.036095,0.01549269
80.190964,0.0015289955,0.006267863,-29.48056,0.062154955,138.1016,57.036095,0.01549269
80.290964,0.0015446301,0.0048335937,-29.480542,0.062218947,138.17471,57.036095,0.01549269
80.390964,0.0015602647,0.0033993244,-29.480473,0.062282939,138.25252,57.036095,0.01549269
80.490964,0.0015758993,0.0026090979,-29.480405,0.062346931,138.34082,57.023319,0.01549269
80.590964,0.0015915339,0.0030519617,-29.480337,0.062410923,138.42911,56.993848,0.01549269
80.690964,0.0016071684,0.0034948256,-29.480268,0.062474915,138.5174,56.964376,0.01549269
80.790964,0.0016230202,0.0039376894,-29.482234,0.062538907,138.6057,56.934904,0.01549269
80.890964,0.0016390945,0.0043805532,-29.489833,0.062602899,138.67806,56.905433,0.01549269
80.990964,0.0016551688,0.0048234171,-29.497433,0.062666891,138.74968,56.875961,0.015486969
81.090964,0.0016712431,0.0052662809,-29.505033,0.062730883,138.8213,56.84649,0.015478422
81.190964,0.0016873173,0.0057091447,-29.512632,0.062794875,138.89292,56.817018,0.015469874
81.290964,0.0017033916,0.0061520085,-29.520109,0.062858867,138.96965,56.787546,0.015461327
81.390964,0.0017194659,0.0065948724,-29.527246,0.062922859,139.04965,56.758075,0.015506005
81.490964,0.0017355402,0.0062197068,-29.534382,0.062986851,139.12966,56.728603,0.015635002
81.590964,0.0017516145,0.0056023076,-29.541519,0.063050843,139.20966,56.699132,0.015763999
81.690964,0.0017676888,0.0049849084,-29.548655,0.063114835,139.26335,56.66966,0.015892996
81.790964,0.0017686076,0.0043675092,-29.553912,0.063178827,139.24626,56.64066,0.016007323
81.890964,0.00176622,0.0037501101,-29.553912,0.063242819,139.22916,56.64066,0.016007323
81.990964,0.0017638324,0.0031327109,-29.553912,0.063306811,139.21206,56.64066,0.016007323
82.090964,0.0017614448,0.0025153117,-29.553912,0.063358674,139.19496,56.64066,0.016007323
82.190964,0.0017590572,0.0018979126,-29.553912,0.063404704,139.26606,56.64066,0.016007323
82.290964,0.0017566697,0.0012805134,-29.553912,0.063450735,139.34424,56.64066,0.016007323
82.390964,0.0017542821,0.00080062703,-29.553912,0.063496765,139.42243,56.64066,0.016007323
82.490964,0.0017518945,0.0008716415,-29.553912,0.063542795,139.50061,56.64066,0.016007323
82.590964,0.0017495069,0.00094265597,-29.553912,0.063588826,139.53097,56.64066,0.016007323
82.690964,0.0017456463,0.0010136704,-29.553912,0.063634856,139.53097,56.64066,0.016007323
82.790964,0.001733308,0.0010846849,-29.555165,0.063680886,139.53097,56.64066,0.016007323
82.890964,0.0017209697,0.0011556994,-29.559953,0.063726916,139.53097,56.64066,0.016007323
82.990964,0.0017086314,0.0012267138,-29.564742,0.063772947,139.53097,56.64066,0.016007323
83.090964,0.0016962931,0.0012977283,-29.569531,0.063818977,139.53097,56.64066,0.016007323
83.190964,0.0016839549,0.0013687428,-29.57432,0.063865007,139.53097,56.625863,0.016007323
83.290964,0.0016716166,0.0014397572,-29.579611,0.063911038,139.53097,56.600193,0.016007323
83.390964,0.0016592783,0.0014404904,-29.586326,0.063957068,139.53097,56.574522,0.016007323
83.490964,0.00164694,0.0013995925,-29.59304,0.064003098,139.62296,56.548852,0.016007323
83.590964,0.0016346017,0.0013586946,-29.599754,0.064049129,139.71695,56.523181,0.016007323
83.690964,0.0016293592,0.0013177966,-29.606469,0.064095159,139.81093,56.497511,0.016007323
83.790964,0.0016319359,0.0012768987,-29.61259,0.064141189,139.90491,56.47184,0.016007323
