time(s),C_Active,L_Active,itp_Po,itp_Temp,itp_HR,itp_RR,itp_HRV
62.429565,0.0033089881,,-27.940749,0.18874479,165.83781,55.114749,0.0052653312
62.529565,0.0034401365,,-27.940749,0.1891491,165.84921,55.071302,0.0052973853
62.629565,0.0035712849,,-27.940749,0.18955341,165.8606,55.027856,0.0053329108
62.729565,0.0036980509,,-27.940749,0.18995772,165.872,54.984409,0.0053684363
62.829565,0.0037525829,,-27.930842,0.19036203,165.88054,54.940962,0.0054039617
62.929565,0.0038071148,0.063803996,-27.915793,0.19076633,165.87676,54.897515,0.0054404472
63.029565,0.0038616468,0.058031677,-27.900744,0.19117064,165.87297,54.854068,0.0054774413
63.129565,0.0039161788,0.052259358,-27.885695,0.19157495,165.86919,54.810621,0.0055144354
63.229565,0.0039707107,0.046487039,-27.870646,0.19197926,165.84146,54.767174,0.0055514295
63.329565,0.0040252427,0.04071472,-27.865488,0.19238357,165.75562,54.738872,0.0055886965
63.429565,0.0040797747,0.034942401,-27.865488,0.19278787,165.66978,54.738872,0.0056260296
63.529565,0.0041343067,0.029170082,-27.865488,0.19319218,165.58394,54.738872,0.0056633627
63.629565,0.0041888386,0.023397763,-27.865488,0.19359649,165.49147,54.738872,0.0057006958
63.729565,0.0041768453,0.017625444,-27.865488,0.1940008,165.38766,54.738872,0.00574915
63.829565,0.0040916918,0.011853125,-27.855162,0.19440511,165.28385,54.738872,0.0057980863
63.929565,0.0040065383,0.0093541802,-27.839425,0.19480941,165.18003,54.738872,0.0058470227
64.029565,0.0039213848,0.0097534369,-27.823688,0.19515278,165.10999,54.738872,0.0058956681
64.129565,0.0038362312,0.010152694,-27.807951,0.19548492,165.08765,54.738872,0.00594177
64.229565,0.0037510777,0.01055195,-27.792214,0.19581707,165.06532,54.738872,0.0059878719
64.329565,0.0036659242,0.010951207,-27.776523,0.19614921,165.04298,54.738872,0.0060339737
64.429565,0.0035807706,0.011350463,-27.760856,0.19648135,165.03091,54.738872,0.0060692617
64.529565,0.0034956171,0.01174972,-27.745188,0.19681349,165.03091,54.738872,0.0060692617
64.629565,0.0034104636,0.012148977,-27.729521,0.19714563,165.03091,54.686811,0.0060692617
64.729565,0.0034386101,0.012548233,-27.713853,0.19747778,165.03091,54.633095,0.0060692617
64.829565,0.0034799237,0.01294749,-27.707668,0.19780992,165.03091,54.579379,0.0060692617
64.929565,0.0035212374,0.01275788,-27.706501,0.19814206,165.03091,54.525663,0.0060692617
65.029565,0.003562551,0.012472635,-27.705333,0.1984742,165.03091,54.471947,0.0060692617
65.129565,0.0036038646,0.012187391,-27.704166,0.19880634,165.03091,54.418231,0.0060692617
65.229565,0.0036451782,0.011902146,-27.702998,0.19913849,165.03091,54.364515,0.0060640793
65.329565,0.0036864918,0.011616901,-27.688291,0.19947063,165.03091,54.310799,0.0060534774
65.429565,0.0037278055,0.011331657,-27.666384,0.19980277,165.03091,54.257083,0.0060428755
65.529565,0.0037691191,0.011046412,-27.644478,0.20013491,165.03091,54.203367,0.0060322737
65.629565,0.0037733479,0.010761168,-27.622571,0.20046706,165.03091,54.149651,0.0060543334
65.729565,0.0036975296,0.010475923,-27.600665,0.2007992,165.03091,54.095935,0.0060990646
65.829565,0.0036217114,0.011971019,-27.592519,0.20113134,165.03091,54.053911,0.0061437959
65.929565,0.0035458932,0.020992892,-27.591725,0.20146348,165.03091,54.022787,0.0061885271
66.029565,0.003470075,0.030014765,-27.590931,0.20179562,165.03091,53.991663,0.0062362329
66.129565,0.0033942567,0.039036638,-27.590137,0.20212777,165.03091,53.960538,0.0062852646
66.229565,0.0033184385,0.048058511,-27.589342,0.20245991,165.03091,53.929414,0.0063342963
66.329565,0.0032426203,0.057080384,-27.589065,0.20279205,165.03091,53.89829,0.0063833281
66.429565,0.003166802,0.066102257,-27.589065,0.20312419,165.10328,53.867166,0.0064272038
66.529565,0.0030909838,0.07512413,-27.589065,0.20345634,165.20812,53.836041,0.006469754
66.629565,0.003095124,0.084146003,-27.589065,0.20378848,165.31297,53.804917,0.0065123042
66.729565,0.003127874,0.093167876,-27.589065,0.20412062,165.41782,53.773793,0.0065548544
66.829565,0.003160624,0.09394693,-27.589065,0.20445276,165.5231,53.742669,0.0066056476
66.929565,0.003193374,0.087089649,-27.589065,0.2047849,165.6285,53.711545,0.0066573845
67.029565,0.003226124,0.080232368,-27.589065,0.20511705,165.73391,53.6837,0.0067091214
67.129565,0.003258874,0.073375087,-27.589065,0.20544919,165.83931,53.742478,0.0067608583
67.229565,0.003291624,0.066517807,-27.589065,0.20578133,165.85191,53.801255,0.0067990983
67.329565,0.003324374,0.059660526,-27.588968,0.20611347,165.85191,53.860033,0.0068371515
67.429565,0.003357124,0.052803245,-27.588818,0.20644561,165.85191,53.91881,0.0068752047
67.529565,0.0033858684,0.045945964,-27.588668,0.20677776,165.85191,53.977588,0.0069154871
67.629565,0.0033930839,0.039088683,-27.588518,0.2071099,165.83711,54.036366,0.0069867368
67.729565,0.0034002995,0.032231402,-27.588368,0.20744204,165.82209,54.095143,0.0070579865
67.829565,0.0034075151,0.030214797,-27.588315,0.20777418,165.80708,54.153921,0.0071292362
67.929565,0.0034147307,0.029076094,-27.588315,0.20810633,165.78742,54.212698,0.0072005495
68.029565,0.0034219463,0.027937391,-27.588315,0.20843075,165.72172,54.271476,0.007272229
68.129565,0.0034291618,0.026798687,-27.588315,0.20875375,165.65602,54.330254,0.0073439084
68.229565,0.0034363774,0.025659984,-27.588315,0.20907676,165.59032,54.389031,0.0074155879
68.329565,0.003443593,0.024521281,-27.588315,0.20939976,165.52706,54.405616,0.007463841
68.429565,0.0034508086,0.023382578,-27.588315,0.20972276,165.4739,54.405616,0.0074336955
68.529565,0.0034663194,0.022243874,-27.588315,0.21004577,165.42075,54.405616,0.0074035501
68.629565,0.0034879221,0.021105171,-27.588315,0.21036877,165.36759,54.405616,0.0073734047
68.729565,0.0035095249,0.020098759,-27.588315,0.21069177,165.31667,54.405616,0.0073668659
68.829565,0.0035311277,0.01972472,-27.588156,0.21101478,165.27104,54.405616,0.0074119351
68.929565,0.0035527304,0.019350681,-27.587909,0.21133778,165.22542,54.405616,0.0074570043
69.029565,0.0035743332,0.018976642,-27.587662,0.21166078,165.17979,54.405616,0.0075020735
69.129565,0.0035959359,0.018602602,-27.587416,0.21198379,165.13709,54.405616,0.0075600852
69.229565,0.0036175387,0.018228563,-27.587169,0.21230679,165.09929,54.405616,0.0076375021
69.329565,0.0036391415,0.017854524,-27.587081,0.21262979,165.06149,54.405616,0.007714919
69.429565,0.0036607442,0.017480485,-27.587081,0.2129528,165.02368,54.405616,0.0077923359
69.529565,0.0034674297,0.017106446,-27.587081,0.2132758,165.00546,54.405616,0.0078589041
69.629565,0.0032735852,0.016732407,-27.587081,0.2135988,165.01563,54.405616,0.0079142344
69.729565,0.0030797407,0.016517818,-27.587081,0.21392181,165.02581,54.405616,0.0079695647
69.829565,0.0028858962,0.016462978,-27.587081,0.21424481,165.03598,54.405616,0.008024895
69.929565,0.0026920518,0.016408137,-27.587081,0.21456781,165.04467,54.405616,0.0080808051
70.029565,0.0024982073,0.016353296,-27.587081,0.21489082,165.05151,54.405616,0.008137137
70.129565,0.0023043628,0.016298455,-27.587081,0.21521382,165.05835,54.405616,0.0081934689
70.229565,0.0021105184,0.016243614,-27.587081,0.21553682,165.06519,54.405616,0.0082498008
70.329565,0.0019166739,0.016188774,-27.573377,0.21585983,165.0786,54.405616,0.0082538122
70.429565,0.0018226443,0.016133933,-27.552029,0.21618283,165.09919,54.405616,0.0082319398
70.529565,0.0018673544,0.016079092,-27.53068,0.21650583,165.11978,54.405616,0.0082100675
70.629565,0.0019120646,0.016024251,-27.509332,0.21682884,165.14037,54.405616,0.0081881951
70.729565,0.0019567747,0.015542928,-27.487983,0.21715184,165.16993,54.405616,0.0081847321
70.829565,0.0020014848,0.01497197,-27.465809,0.21747484,165.20801,54.405616,0.0081870527
70.929565,0.002046195,0.014401011,-27.443172,0.21779785,165.2461,54.405616,0.0081893732
71.029565,0.0020909051,0.013830052,-27.420535,0.21812085,165.28418,54.405616,0.0081916938
71.129565,0.0021356152,0.013259093,-27.397898,0.21844385,165.3146,54.405616,0.0081988018
71.229565,0.0021803253,0.012688134,-27.375261,0.21876686,165.33877,54.405616,0.0082067242
71.329565,0.0022250355,0.012117175,-27.350058,0.21908986,165.36293,54.405616,0.0082146467
71.429565,0.0022067891,0.011546217,-27.323408,0.21941286,165.3871,54.405616,0.0082225692
71.529565,0.0021763981,0.010975258,-27.296759,0.21973587,165.42817,54.405616,0.0082219264
71.629565,0.002146007,0.010520015,-27.27011,0.22005887,165.48106,54.405616,0.0082208308
71.729565,0.002115616,0.010698947,-27.243461,0.22038187,165.53395,54.405616,0.0082197351
71.829565,0.002085225,0.01087788,-27.218037,0.22070488,165.58683,54.405616,0.0082186906
71.929565,0.002054834,0.011056812,-27.193307,0.22102788,165.63539,54.405616,0.0082186906
72.029565,0.002024443,0.011235745,-27.168576,0.22137649,165.68142,54.450751,0.0082186906
72.129565,0.001994052,0.011414677,-27.143846,0.22172982,165.72744,54.51781,0.0082186906
72.229565,0.001963661,0.011593609,-27.119116,0.22208314,165.77347,54.58487,0.0082186906
72.329565,0.0019585728,0.011772542,-27.094661,0.22243647,165.81717,54.65193,0.0082186906
72.429565,0.0020260473,0.011951474,-27.070364,0.22278979,165.85977,54.71899,0.0082186906
72.529565,0.0020935218,0.012130406,-27.046067,0.22314312,165.90236,54.78605,0.0082186906
72.629565,0.0021609963,0.011759618,-27.021769,0.22349644,165.94495,54.85311,0.0082325025
72.729565,0.0022284709,0.010798036,-26.997472,0.22384977,166.01171,54.92017,0.0082887958
72.829565,0.0022959454,0.0098364541,-26.977323,0.22420309,166.08773,54.98723,0.0083450891
72.929565,0.0023634199,0.0088748724,-26.959544,0.22455642,166.16375,55.05429,0.0084013823
73.029565,0.0024308944,0.0079132906,-26.941765,0.22490975,166.23977,55.12135,0.0084416386
73.129565,0.0024983689,0.0069517089,-26.923985,0.22526307,166.25701,55.18841,0.0084515911
73.229565,0.0025658434,0.0059901272,-26.906206,0.2256164,166.25701,55.229672,0.0084615436
73.329565,0.0026443533,0.0050285454,-26.899723,0.22596972,166.25701,55.229672,0.0084714961
73.429565,0.0027280975,0.0040669637,-26.899723,0.22632305,166.25701,55.229672,0.0084837473
73.529565,0.0028118417,0.0031053819,-26.899723,0.22667637,166.25701,55.229672,0.0084988318
73.629565,0.0028955859,0.0027686452,-26.899723,0.2270297,166.25701,55.229672,0.0085139163
73.729565,0.0029793301,0.0025779795,-26.899723,0.22738302,166.25701,55.229672,0.0085290009
73.829565,0.0030630743,0.0023873138,-26.897871,0.22773635,166.25701,55.229672,0.0085399723
73.929565,0.0031468185,0.0021966481,-26.894949,0.22808967,166.25701,55.229672,0.0085475951
74.029565,0.0032305627,0.0020059825,-26.892028,0.228443,166.25701,55.229672,0.008555218
74.129565,0.0033143069,0.0018153168,-26.889107,0.22879633,166.25701,55.229672,0.0085628408
74.229565,0.0033970378,0.0016246511,-26.886186,0.22914965,166.25701,55.229672,0.0086265586
74.329565,0.0034704325,0.0014339854,-26.874476,0.22950298,166.25701,55.229672,0.0087197215
74.429565,0.0035438272,0.0012433197,-26.857675,0.2298563,166.25701,55.234259,0.0088128843
74.529565,0.0036172219,0.0010752863,-26.840873,0.23020963,166.25701,55.304137,0.0089060472
74.629565,0.0036906167,0.0010491928,-26.824071,0.23056295,166.25701,55.374014,0.0090061665
74.729565,0.0037640114,0.0010230993,-26.80727,0.23091628,166.25701,55.443892,0.0091086727
74.829565,0.0038374061,0.00099700577,-26.778088,0.2312696,166.25701,55.51377,0.009211179
74.929565,0.0039108008,0.00097091225,-26.741701,0.23162293,166.25701,55.583647,0.0093136852
75.029565,0.0039841955,0.00094481873,-26.705313,0.23197626,166.26224,55.653525,0.009412415
75.129565,0.0040575902,0.0009187252,-26.668925,0.23232958,166.34004,55.723403,0.0095104138
75.229565,0.0040538815,0.00089263168,-26.632538,0.23268291,166.41785,55.79328,0.0096084126
75.329565,0.0039784243,0.00086653816,-26.594387,0.23303623,166.49565,55.863158,0.0097064114
75.429565,0.0039029671,0.00084044464,-26.555204,0.23338956,166.57281,55.933036,0.009805584
75.529565,0.00382751,0.00080829254,-26.516022,0.23374288,166.64735,56.002913,0.0099048591
75.629565,0.0037520528,0.000769235,-26.47684,0.23409621,166.72188,56.072791,0.010004134
75.729565,0.0036765956,0.00073017745,-26.437657,0.23444953,166.79641,56.140623,0.010103409
75.829565,0.0036011384,0.00069111991,-26.399665,0.23480286,166.848,56.208244,0.010125247
75.929565,0.0035256813,0.00065206236,-26.362373,0.23515619,166.85185,56.275866,0.010146812
76.029565,0.0034502241,0.00061300482,-26.32508,0.23554203,166.8557,56.343487,0.010168377
76.129565,0.0033747669,0.00057394727,-26.287787,0.23593385,166.85956,56.411109,0.010188459
76.229565,0.0034253949,0.00053488973,-26.250495,0.23632568,166.88073,56.478731,0.010188459
76.329565,0.0034845306,0.00049583218,-26.238363,0.23671751,166.92253,56.546352,0.010188459
76.429565,0.0035436663,0.00045677464,-26.241083,0.23710934,166.96434,56.613974,0.010188459
76.529565,0.003602802,0.00045173335,-26.243804,0.23750116,167.00615,56.681595,0.010199304
76.629565,0.0036619377,0.00045537979,-26.246524,0.23789299,167.02105,56.749217,0.010278741
76.729565,0.0037210735,0.00045902624,-26.249245,0.23828482,167.01718,56.816839,0.010358178
76.829565,0.0037802092,0.00046267269,-26.250258,0.23867665,167.01331,56.88446,0.010437615
76.929565,0.0038393449,0.00046631913,-26.250258,0.23906848,167.00944,56.895137,0.01051912
77.029565,0.0038984806,0.00046996558,-26.250258,0.2394603,167.00837,56.895137,0.010608868
77.129565,0.0038986681,0.00047361203,-26.250258,0.23985213,167.00837,56.895137,0.010698615
77.229565,0.0037923636,0.00047725848,-26.250258,0.24024396,167.00837,56.895137,0.010788363
77.329565,0.0036860591,0.00048090492,-26.254008,0.24063579,167.00837,56.895137,0.0108342
77.429565,0.0035797546,0.00048247613,-26.259993,0.24102762,166.94155,56.895137,0.01075174
77.529565,0.0034734501,0.00046937863,-26.265978,0.24141944,166.8634,56.895137,0.010669279
77.629565,0.0033671456,0.00045628114,-26.271963,0.24181127,166.78525,56.895137,0.010586819
77.729565,0.0032608411,0.00044318364,-26.277948,0.2422031,166.70711,56.895137,0.010557936
77.829565,0.0031545366,0.00043008614,-26.258523,0.24259493,166.73491,56.895137,0.010654927
77.929565,0.0030482321,0.00041698865,-26.223885,0.24298676,166.7642,56.895137,0.010751918
78.029565,0.0029419276,0.00040389115,-26.189247,0.24337858,166.79348,56.895137,0.010848909
78.129565,0.0028761482,0.00039079365,-26.15461,0.24377041,166.82711,56.898407,0.010930359
78.229565,0.0028220543,0.00037769616,-26.119972,0.24416224,166.88699,56.903188,0.010982017
78.329565,0.0027679604,0.00036459866,-26.085059,0.24455407,166.94687,56.907969,0.011033674
78.429565,0.0027138666,0.00035927805,-26.049981,0.2449459,167.00675,56.91275,0.011085332
78.529565,0.0026597727,0.00036335517,-26.014902,0.24533772,167.02335,56.917531,0.011144382
78.629565,0.0026056788,0.0003674323,-25.979824,0.24572955,166.95141,56.922312,0.011215068
78.729565,0.002551585,0.00037150943,-25.944746,0.24612138,166.87948,56.927093,0.011285755
78.829565,0.0024974911,0.00037558655,-25.91312,0.24651321,166.80755,56.931874,0.011356441
78.929565,0.0024433972,0.00037966368,-25.883581,0.24690504,166.73196,56.936655,0.011439866
79.029565,0.0024071669,0.00038374081,-25.854042,0.24729686,166.6529,56.941436,0.011539732
79.129565,0.0024441294,0.00038781793,-25.824502,0.24768869,166.57383,56.946217,0.011639599
79.229565,0.0024810919,0.00039189506,-25.794963,0.24808052,166.49477,56.950998,0.011739466
79.329565,0.0025180545,0.00039597219,-25.76334,0.24847235,166.51711,56.991075,0.011839321
79.429565,0.002555017,0.00039297723,-25.730452,0.24886418,166.58532,57.056039,0.011939162
79.529565,0.0025919796,0.00038799707,-25.697564,0.249256,166.65354,57.121003,0.012039004
79.629565,0.0026289421,0.00038301692,-25.664677,0.24964783,166.72176,57.185967,0.012138845
79.729565,0.0026659046,0.00037803676,-25.631789,0.25003966,166.66196,57.250931,0.012266934
79.829565,0.0027028672,0.00037305661,-25.606257,0.25043149,166.58306,57.315895,0.01242275
79.929565,0.0027398297,0.00036807645,-25.585212,0.25082332,166.50416,57.38086,0.012578566
80.029565,0.0028126279,0.0003630963,-25.564166,0.25123173,166.42814,57.445824,0.012734382
80.129565,0.0029078369,0.00035811614,-25.543121,0.2516432,166.42452,57.510788,0.012889279
80.229565,0.0030030459,0.00035313599,-25.522076,0.25205466,166.42091,57.575752,0.013043394
80.329565,0.0030982549,0.000349488,-25.492997,0.25246613,166.41729,57.640716,0.01319751
80.429565,0.0031934639,0.00035663749,-25.458996,0.2528776,166.41442,57.70568,0.013351625
80.529565,0.0032886729,0.00036378698,-25.424995,0.25328907,166.41442,57.755057,0.013509288
80.629565,0.0033838819,0.00037093647,-25.390993,0.25370053,166.41442,57.793944,0.013669584
80.729565,0.0034790909,0.00037808596,-25.356992,0.254112,166.41442,57.832832,0.01382988
80.829565,0.0035742999,0.00038523545,-25.344036,0.25452347,166.44711,57.871719,0.013990175
80.929565,0.0036668851,0.00039238495,-25.344036,0.25493494,166.53077,57.910607,0.014162346
81.029565,0.0036863731,0.00039953444,-25.344036,0.2553464,166.61442,57.949494,0.014342435
81.129565,0.0037058611,0.00040668393,-25.344036,0.25575787,166.69808,57.988381,0.014522524
81.229565,0.0037253491,0.00041383342,-25.344036,0.25616934,166.67981,58.027269,0.014702613
81.329565,0.0037448371,0.0004147942,-25.344036,0.25658081,166.59664,58.066156,0.014769849
81.429565,0.0037643251,0.00040777328,-25.344036,0.25699227,166.51348,58.105043,0.014769849
81.529565,0.0037838131,0.00040075235,-25.344036,0.25740374,166.43031,58.143931,0.014769849
81.629565,0.0038033011,0.00039373143,-25.344036,0.25781521,166.34791,58.182818,0.014769849
81.729565,0.0038227891,0.00038671051,-25.344036,0.25822668,166.2657,58.239252,0.014769849
81.829565,0.0038422771,0.00037968958,-25.336269,0.25863814,166.18348,58.304901,0.014769849
81.929565,0.0038388245,0.00037266866,-25.323676,0.25904961,166.10127,58.37055,0.014769849
82.029565,0.0038077606,0.00036564774,-25.311083,0.25946108,166.11063,58.436199,0.014769849
82.129565,0.0037766967,0.00035862681,-25.29849,0.25987255,166.12224,58.501848,0.014769849
82.229565,0.0037456328,0.00035160589,-25.285897,0.26028401,166.13385,58.567497,0.014769849
82.329565,0.0037145689,0.00035113221,-25.281057,0.26069548,166.13091,58.633146,0.014769849
82.429565,0.003683505,0.0003526908,-25.281057,0.26110695,166.04586,58.698795,0.014769849
82.529565,0.0036524411,0.00035424939,-25.281057,0.26151842,165.96081,58.764444,0.014769849
82.629565,0.0036213772,0.00035580798,-25.281057,0.26192988,165.87576,58.830093,0.014769849
82.729565,0.0035903133,0.00035736657,-25.281057,0.26234135,165.788,58.895742,0.014769849
82.829565,0.0035592494,0.00035892515,-25.282813,0.26275282,165.69338,58.961391,0.014769849
82.929565,0.0035800094,0.00036048374,-25.285672,0.26316429,165.59877,58.998533,0.014906572
83.029565,0.0036082538,0.00036204233,-25.28853,0.26357575,165.50415,59.027689,0.015091816
83.129565,0.0036364983,0.00036360092,-25.291388,0.26398722,165.44211,59.056846,0.015277061
83.229565,0.0036647427,0.0003673407,-25.294247,0.26439869,165.43455,59.086002,0.015462306
83.329565,0.0036929872,0.00039284645,-25.277892,0.26481016,165.42699,59.115159,0.015645457
83.429565,0.0037212316,0.00041835221,-25.249434,0.26522162,165.41943,59.144315,0.015827967
83.529565,0.0037494761,0.00044385796,-25.220975,0.26563309,165.41714,59.173472,0.016010476
83.629565,0.0037777205,0.00046936372,-25.192517,0.26604456,165.42094,59.202628,0.016192985
83.729565,0.003805965,0.00049486947,-25.164058,0.26645603,165.42473,59.231785,0.016314557
83.829565,0.0038332645,0.00052037522,-25.137355,0.26686749,165.42852,59.260941,0.016420352
83.929565,0.003858277,0.00054588098,-25.111762,0.26727896,165.40647,59.290098,0.016526147
84.029565,0.0038832895,0.00057138673,-25.086169,0.26767883,165.36413,59.319254,0.016631943
84.129565,0.003908302,0.00059689248,-25.060576,0.26807656,165.3218,59.291075,0.016576344
84.229565,0.0039333146,0.00063468628,-25.034983,0.26847429,165.27946,59.259176,0.016486209
84.329565,0.0039583271,0.00068949127,-25.025035,0.26887203,165.1949,59.227277,0.016396074
84.429565,0.0039833396,0.00074429627,-25.025035,0.26926976,165.08774,59.195378,0.016305939
84.529565,0.0040083522,0.00079910126,-25.025035,0.26966749,164.98058,59.16348,0.016293931
