time(s),C_Active,L_Active,itp_Po,itp_Temp,itp_HR,itp_RR,itp_HRV
62.456906,0.0085605717,,-28.857258,0.15529782,140.19088,54.328025,0.04020759
62.556906,0.008029575,,-28.864158,0.15583016,140.19088,54.328025,0.040638874
62.656906,0.0074985783,,-28.871058,0.1563625,140.19088,54.328025,0.041070159
62.756906,0.0069675817,,-28.877958,0.15689484,140.19088,54.328025,0.041501443
62.856906,0.0066433634,,-28.881485,0.15742718,140.13819,54.328025,0.041576057
62.956906,0.0063504687,0.063482568,-28.884783,0.15795952,140.04787,54.328025,0.041576938
63.056906,0.0060575741,0.057434437,-28.88808,0.15849186,139.95756,54.328025,0.041577819
63.156906,0.0057646795,0.051386307,-28.891377,0.1590242,139.86725,54.328025,0.0415787
63.256906,0.0054717849,0.045338177,-28.894675,0.15955654,139.77858,54.328025,0.041294208
63.356906,0.0051788903,0.039290046,-28.896088,0.16008888,139.6917,54.328025,0.040868591
63.456906,0.0048859956,0.033241916,-28.897371,0.16062122,139.60483,54.328025,0.040442974
63.556906,0.004593101,0.027193786,-28.898654,0.16115355,139.51795,54.328025,0.040017357
63.656906,0.0043002064,0.021145655,-28.899937,0.16168589,139.43934,54.328025,0.039766499
63.756906,0.0041774985,0.015097525,-28.90122,0.16221823,139.37615,54.29861,0.039687755
63.856906,0.0044886603,0.0090493945,-28.905815,0.16275057,139.31296,54.227066,0.039609011
63.956906,0.0047998221,0.0061052572,-28.910644,0.16328291,139.24977,54.155522,0.039530267
64.056906,0.0051109839,0.0059455536,-28.915473,0.16381525,139.19918,54.083978,0.039453973
64.156906,0.0054221457,0.00578585,-28.920302,0.16434759,139.19918,54.012435,0.039382558
64.256906,0.0057333076,0.0056261463,-28.925131,0.16487993,139.19918,53.940891,0.039311143
64.356906,0.0060444694,0.0054664427,-28.933662,0.16541227,139.19918,53.869347,0.039239728
64.456906,0.0063556312,0.0053067391,-28.942459,0.16594461,139.19632,53.797803,0.039111518
64.556906,0.006666793,0.0051470355,-28.951256,0.16647695,139.13601,53.726259,0.038679928
64.656906,0.0069779548,0.0049873318,-28.960053,0.16700929,139.07569,53.654715,0.038248339
64.756906,0.0068171745,0.0048276282,-28.96885,0.16754163,139.01537,53.583171,0.037816749
64.856906,0.0064496244,0.0046679246,-28.974011,0.16807397,138.95506,53.511628,0.03738516
64.956906,0.0060820743,0.0054697116,-28.978907,0.16860631,138.96257,53.440084,0.037521834
65.056906,0.0057145242,0.0064376292,-28.983803,0.16913865,138.97993,53.36854,0.037671056
65.156906,0.0053469742,0.0074055469,-28.988698,0.16957899,138.99729,53.316805,0.037820277
65.256906,0.0049794241,0.0083734645,-28.993594,0.17000782,139.01465,53.316805,0.037969499
65.356906,0.004611874,0.0093413822,-28.998891,0.17043664,139.01648,53.316805,0.038144735
65.456906,0.0042443239,0.0103093,-29.004217,0.17086546,139.01183,53.316805,0.038327407
65.556906,0.0038767738,0.011277217,-29.009543,0.17129429,139.00719,53.316805,0.038510079
65.656906,0.0035650983,0.012245135,-29.014869,0.17172311,139.00254,53.316805,0.038692752
65.756906,0.0037103267,0.013213053,-29.020196,0.17215193,139.00039,53.316805,0.038994672
65.856906,0.0038555552,0.013873656,-29.027954,0.17258075,139.00039,53.316805,0.039390185
65.956906,0.0040007837,0.013120417,-29.035896,0.17300958,139.00039,53.316805,0.039785697
66.056906,0.0041460121,0.012367177,-29.043838,0.1734384,139.00039,53.316805,0.04018121
66.156906,0.0042912406,0.011613937,-29.05178,0.17386722,139.00039,53.316805,0.040415653
66.256906,0.004436469,0.010860698,-29.059723,0.17429605,139.00039,53.316805,0.040335947
66.356906,0.0045816975,0.010107458,-29.068729,0.17472487,139.00039,53.316805,0.040256242
66.456906,0.0047269259,0.0093542185,-29.077816,0.17515369,139.00039,53.316805,0.040176537
66.556906,0.0048721544,0.0086009789,-29.086904,0.17558251,138.99675,53.318366,0.040095697
66.656906,0.0049556267,0.0078477393,-29.095992,0.17601134,138.97808,53.354058,0.040005929
66.756906,0.0049824711,0.0070944997,-29.10508,0.17644016,138.95941,53.389749,0.039916161
66.856906,0.0050093156,0.0075031038,-29.114275,0.17686898,138.94073,53.425441,0.039826392
66.956906,0.00503616,0.0090666195,-29.123478,0.17729781,138.92181,53.461132,0.039736624
67.056906,0.0050630044,0.010630135,-29.132682,0.17772663,138.89155,53.496824,0.039727686
67.156906,0.0050898489,0.012193651,-29.141885,0.17815545,138.86128,53.532516,0.039727686
67.256906,0.0051166933,0.013757167,-29.151088,0.17858428,138.83101,53.568207,0.039727686
67.356906,0.0051435377,0.015320682,-29.160399,0.1790131,138.80075,53.603899,0.039727686
67.456906,0.0051703822,0.016884198,-29.169719,0.17944192,138.72976,53.63959,0.039727686
67.556906,0.0051972266,0.018447714,-29.179039,0.17987074,138.65121,53.675282,0.039727686
67.656906,0.0051541438,0.02001123,-29.188359,0.18029957,138.57267,53.710973,0.039727686
67.756906,0.0051061917,0.021574745,-29.197679,0.18072839,138.49413,53.746665,0.039727686
67.856906,0.0050582396,0.020164639,-29.204089,0.18115721,138.46742,53.782356,0.039541211
67.956906,0.0050102875,0.018121283,-29.210265,0.18158604,138.46742,53.818048,0.039139128
68.056906,0.0049623355,0.016077927,-29.21644,0.18201486,138.46742,53.820862,0.038737044
68.156906,0.0049143834,0.014034572,-29.222616,0.18244368,138.46742,53.820862,0.038334961
68.256906,0.0048664313,0.011991216,-29.228791,0.1828725,138.44098,53.820862,0.038058028
68.356906,0.0048184793,0.0099478601,-29.234781,0.18330133,138.38533,53.820862,0.038142162
68.456906,0.0047705272,0.0079045042,-29.240756,0.18373015,138.32969,53.820862,0.038226297
68.556906,0.0047391825,0.0058611484,-29.246731,0.18415897,138.27404,53.820862,0.038310431
68.656906,0.0047390743,0.0038177926,-29.252706,0.1845878,138.21011,53.820862,0.038413306
68.756906,0.004738966,0.0021884102,-29.258681,0.18501662,138.12537,53.820862,0.0388186
68.856906,0.0047388578,0.0029456154,-29.253912,0.18544544,138.04063,53.820862,0.039223894
68.956906,0.0047387495,0.0037028207,-29.248251,0.18587427,137.9559,53.820862,0.039629188
69.056906,0.0047386413,0.004460026,-29.242589,0.18630309,137.87544,53.820862,0.040034482
69.156906,0.0047385331,0.0052172312,-29.236928,0.18665007,137.84133,53.820862,0.040221077
69.256906,0.0047384248,0.0059744365,-29.231266,0.1869868,137.80723,53.820862,0.040371013
69.356906,0.0047383166,0.0067316417,-29.225321,0.18732353,137.77312,53.820862,0.040520949
69.456906,0.0047382083,0.007488847,-29.219353,0.18766026,137.73902,53.836079,0.040670885
69.556906,0.0045623216,0.0082460523,-29.213385,0.18799699,137.73487,53.859501,0.040722191
69.656906,0.0043308464,0.0090032575,-29.207416,0.18833372,137.73487,53.882923,0.040722191
69.756906,0.0040993712,0.0095713902,-29.201448,0.18867045,137.73487,53.906345,0.040722191
69.856906,0.0038678959,0.0099288646,-29.194645,0.18900717,137.73487,53.929767,0.040722191
69.956906,0.0036364207,0.010286339,-29.18777,0.1893439,137.67511,53.953189,0.040922835
70.056906,0.0034049455,0.010643813,-29.180896,0.18968063,137.58653,53.976611,0.041365368
70.156906,0.0031734702,0.011001288,-29.174021,0.19001736,137.49794,54.000033,0.041807902
70.256906,0.002941995,0.011358762,-29.167147,0.19035409,137.40936,54.023455,0.042250435
70.356906,0.0027105198,0.011716236,-29.158341,0.19069082,137.34093,54.046877,0.042579154
70.456906,0.0025147535,0.012073711,-29.149367,0.19102755,137.29644,54.070299,0.042579154
70.556906,0.0024903704,0.012431185,-29.140393,0.19136428,137.25194,54.093721,0.042579154
70.656906,0.0024659873,0.012788659,-29.131419,0.19170101,137.20745,54.117143,0.042579154
70.756906,0.0024416042,0.012372939,-29.122445,0.19203774,137.17226,54.140565,0.04256013
70.856906,0.0024172211,0.011760156,-29.11349,0.19237447,137.17712,54.152392,0.04228811
70.956906,0.002392838,0.011147374,-29.104536,0.1927112,137.18198,54.148301,0.04201609
71.056906,0.0023684549,0.010534591,-29.095583,0.19304792,137.18684,54.144211,0.04174407
71.156906,0.0023440718,0.0099218086,-29.08663,0.19338465,137.1917,54.14012,0.041472051
71.256906,0.0023196887,0.0093090261,-29.077676,0.19372138,137.22558,54.13603,0.041070083
71.356906,0.0022953056,0.0086962435,-29.076942,0.19405811,137.26164,54.131939,0.040651392
71.456906,0.0024513515,0.008083461,-29.076942,0.19439484,137.29769,54.127849,0.040232702
71.556906,0.0027352191,0.0074706785,-29.076942,0.19473157,137.33374,54.123758,0.039814011
71.656906,0.0030190868,0.0069352418,-29.076942,0.1950683,137.32178,54.119668,0.039689865
71.756906,0.0033029545,0.006961282,-29.076942,0.19540503,137.28849,54.115577,0.039694181
71.856906,0.0035868222,0.0069873222,-29.076942,0.19574176,137.25519,54.111487,0.039698497
71.956906,0.0038706899,0.0070133623,-29.076942,0.19607849,137.22189,54.107396,0.039702812
72.056906,0.0041545576,0.0070394025,-29.076942,0.19641522,137.25007,54.103306,0.039479673
72.156906,0.0044384253,0.0070654427,-29.076942,0.19675194,137.35256,54.099215,0.039029781
72.256906,0.004722293,0.0070914829,-29.076942,0.19708867,137.45505,54.098568,0.038579889
72.356906,0.0050061607,0.007117523,-29.076942,0.1974254,137.55754,54.113153,0.038129996
72.456906,0.0055891574,0.0071435632,-29.076942,0.19776213,137.6129,54.127738,0.03768797
72.556906,0.0061723874,0.0071696034,-29.076942,0.19809886,137.51133,54.142323,0.037262971
72.656906,0.0067556173,0.0071810694,-29.076942,0.19843559,137.40976,54.156909,0.036837971
72.756906,0.0073388472,0.0071743842,-29.076942,0.19877232,137.30819,54.171494,0.036412972
72.856906,0.0079220772,0.0071676991,-29.076942,0.19910905,137.20662,54.186079,0.035985167
72.956906,0.0085053071,0.007161014,-29.076942,0.19944578,137.11047,54.200664,0.03553786
73.056906,0.0090885371,0.0071543288,-29.076942,0.19978251,137.01449,54.21525,0.035090553
73.156906,0.009671767,0.0071476437,-29.076942,0.20005837,136.9185,54.229835,0.034643246
73.256906,0.010254997,0.0071409586,-29.076942,0.20032661,136.82251,54.24442,0.034195939
73.356906,0.013313844,0.0071342734,-29.076942,0.20059485,136.79187,54.259005,0.033818396
73.456906,0.019889697,0.0071275883,-29.076942,0.2008631,136.79187,54.273591,0.033445518
73.556906,0.026465551,0.0071209032,-29.076942,0.20113134,136.79187,54.288176,0.033072641
73.656906,0.033041404,0.0067438203,-29.076942,0.20139958,136.79187,54.302685,0.032699764
73.756906,0.039617257,0.006255742,-29.076942,0.20166782,136.76505,54.302685,0.032554284
73.856906,0.046193111,0.0057676637,-29.072012,0.20193606,136.69186,54.302685,0.03248721
73.956906,0.052768964,0.0052795854,-29.066611,0.2022043,136.61867,54.302685,0.032420136
74.056906,0.059344818,0.0047915072,-29.06121,0.20247254,136.54548,54.302685,0.032353062
74.156906,0.065920671,0.0043034289,-29.055809,0.20274078,136.47462,54.302685,0.032343966
74.256906,0.072496525,0.0038153506,-29.050407,0.20300902,136.47462,54.302685,0.03238313
74.356906,0.068331356,0.0033272724,-29.04993,0.20327726,136.47462,54.302685,0.032422294
74.456906,0.061919316,0.0028391941,-29.04993,0.2035455,136.47462,54.302685,0.032461458
74.556906,0.055507276,0.0023934188,-29.04993,0.20381374,136.47462,54.302685,0.032368266
74.656906,0.049095237,0.0023576792,-29.04993,0.20408198,136.47462,54.302685,0.032023026
74.756906,0.042683197,0.0023219396,-29.04993,0.20435023,136.47462,54.302685,0.031677786
74.856906,0.036271157,0.0022862001,-29.04993,0.20461847,136.47462,54.302685,0.031332546
74.956906,0.029859118,0.0022504605,-29.04993,0.20488671,136.47462,54.302685,0.030988263
75.056906,0.023447078,0.0022147209,-29.04993,0.20515495,136.43885,54.302685,0.030649431
75.156906,0.017035038,0.0021789814,-29.04993,0.20542319,136.33926,54.362318,0.030310599
75.256906,0.011925841,0.0021432418,-29.04993,0.20569143,136.23966,54.436511,0.029971767
75.356906,0.010924681,0.0021075022,-29.044825,0.20595967,136.14007,54.510704,0.029632935
75.456906,0.0099235219,0.0020717627,-29.039212,0.20622791,136.04047,54.584897,0.029346691
75.556906,0.0089223625,0.0021221066,-29.033599,0.20649615,136.04021,54.65909,0.029063027
75.656906,0.0079212031,0.0022931416,-29.027986,0.20676439,136.04021,54.733284,0.028779363
75.756906,0.0069200437,0.0024641765,-29.022373,0.20703263,136.04021,54.807477,0.028495699
75.856906,0.0059188844,0.0026352115,-29.021859,0.20730087,136.04021,54.88167,0.028425203
75.956906,0.004917725,0.0028062464,-29.021859,0.20756912,136.04021,54.955863,0.028425203
76.056906,0.0039165656,0.0029772814,-29.021859,0.20783736,136.04021,55.030056,0.028425203
76.156906,0.0029154063,0.0031483163,-29.021859,0.2081056,136.04021,55.104249,0.028425203
76.256906,0.0027668859,0.0033193513,-29.021859,0.20837384,136.04021,55.178442,0.02841834
76.356906,0.003069914,0.0034903862,-29.021859,0.20864208,136.01577,55.252635,0.028405711
76.456906,0.0033729421,0.0036614212,-29.021859,0.20891032,135.92431,55.326829,0.028393081
76.556906,0.0036759702,0.0060822029,-29.021859,0.20917856,135.83285,55.325478,0.028380452
76.656906,0.0039789983,0.0092999214,-29.021859,0.2094468,135.74139,55.311745,0.028278338
76.756906,0.0042820263,0.01251764,-29.021859,0.20971504,135.64993,55.298012,0.027993325
76.856906,0.0045850544,0.015735358,-29.021859,0.20998328,135.63881,55.284278,0.027708312
76.956906,0.0048880825,0.018953077,-29.021859,0.21025152,135.63881,55.270545,0.027423299
77.056906,0.0051911106,0.022170795,-29.021859,0.21051976,135.63881,55.256812,0.02716745
77.156906,0.0054734963,0.025388514,-29.021859,0.2107503,135.63881,55.243079,0.027146612
77.256906,0.0054709917,0.028606232,-29.021859,0.21097611,135.60738,55.229346,0.027125775
77.356906,0.0054684872,0.031823951,-29.021859,0.21120191,135.54554,55.215612,0.027104938
77.456906,0.0054659827,0.034680299,-29.021859,0.21142772,135.4837,55.201879,0.0270841
77.556906,0.0054634781,0.032100053,-29.021859,0.21165353,135.42187,55.188146,0.026837637
77.656906,0.0054609736,0.029519807,-29.021859,0.21187934,135.36755,55.174413,0.026562662
77.756906,0.005458469,0.026939561,-29.021859,0.21210515,135.36755,55.160679,0.026287688
77.856906,0.0054559645,0.024359315,-29.017179,0.21233096,135.36755,55.146946,0.026012713
77.956906,0.0054534599,0.021779069,-29.012003,0.21255677,135.36755,55.215187,0.025916147
78.056906,0.0054509554,0.019198823,-29.006827,0.21278257,135.36755,55.300155,0.02590886
78.156906,0.0053174026,0.016618577,-29.001651,0.21300838,135.29231,55.385124,0.025901573
78.256906,0.0050421598,0.014038331,-28.996475,0.21323419,135.19031,55.470092,0.025894287
78.356906,0.0047669169,0.011458085,-28.944665,0.21346,135.08831,55.55506,0.025878587
78.456906,0.0044916741,0.0097215082,-28.887855,0.21368581,134.98631,55.640029,0.0258524
78.556906,0.0042164312,0.009331137,-28.831046,0.21391162,134.9189,55.724997,0.025826213
78.656906,0.0039411884,0.0089407658,-28.774237,0.21413743,134.9189,55.809966,0.025800026
78.756906,0.0036659456,0.0085503946,-28.717428,0.21436323,134.9189,55.894934,0.025732352
78.856906,0.0033907027,0.0081600235,-28.681742,0.21458904,134.9189,55.979903,0.025521317
78.956906,0.0031154599,0.0077696523,-28.648348,0.21481485,134.9189,56.064871,0.025310282
79.056906,0.002840217,0.0073792811,-28.614954,0.21504066,134.93899,56.149839,0.025099248
79.156906,0.0028310723,0.0069889099,-28.581561,0.21526647,134.96012,56.234808,0.024888213
79.256906,0.0028534791,0.0065985387,-28.548167,0.21549228,134.98125,56.318808,0.024885792
79.356906,0.002875886,0.0062081676,-28.529092,0.21571809,135.00238,56.334919,0.024883864
79.456906,0.0028982928,0.0060329529,-28.51159,0.21594389,135.06826,56.35103,0.024881935
79.556906,0.0029206997,0.0059460452,-28.494087,0.2161697,135.16728,56.367141,0.024880006
79.656906,0.0029431066,0.0058591375,-28.476585,0.21639551,135.2663,56.383252,0.02473671
79.756906,0.0029655134,0.0057722298,-28.459082,0.21662132,135.36532,56.399363,0.024550113
79.856906,0.0029879203,0.0056853221,-28.455543,0.21684713,135.44405,56.415474,0.024363516
79.956906,0.0030103271,0.0055984144,-28.453556,0.21707294,135.44405,56.431585,0.024176919
80.056906,0.003015826,0.0055115067,-28.451568,0.21729875,135.44405,56.447696,0.024010086
80.156906,0.0029831006,0.005424599,-28.44958,0.21752455,135.44405,56.463807,0.023859664
80.256906,0.0029503751,0.0053376912,-28.447592,0.21775036,135.44405,56.479918,0.023709242
80.356906,0.0029176496,0.005258691,-28.447434,0.21797617,135.44405,56.496029,0.023558819
80.456906,0.0028849241,0.0054163868,-28.447482,0.21820198,135.44405,56.51214,0.023391533
80.556906,0.0028521986,0.0055740826,-28.447529,0.21842779,135.44405,56.528251,0.023189878
80.656906,0.0028194731,0.0057317784,-28.447577,0.2186536,135.44405,56.527992,0.022988222
80.756906,0.0027867476,0.0058894742,-28.447624,0.21887941,135.44405,56.474692,0.022786566
80.856906,0.0027540221,0.00604717,-28.453581,0.21910521,135.44405,56.421391,0.022628481
80.956906,0.0027212966,0.0062048658,-28.460211,0.21933102,135.44405,56.368091,0.022817805
81.056906,0.0025684331,0.0063625616,-28.466841,0.21955683,135.44405,56.31479,0.02300713
81.156906,0.0023689904,0.0065202574,-28.47347,0.21975716,135.44718,56.26149,0.023196454
81.256906,0.0021695476,0.0066779532,-28.4801,0.21995429,135.47881,56.208189,0.023385779
81.356906,0.0019701049,0.006823413,-28.458611,0.22015143,135.51045,56.154889,0.02359943
81.456906,0.0017706621,0.0069469486,-28.433887,0.22034856,135.54208,56.101588,0.023816577
81.556906,0.0015712194,0.0070704843,-28.409163,0.22054569,135.57372,56.048288,0.024033724
81.656906,0.0013717766,0.00719402,-28.384439,0.22074283,135.64302,55.994987,0.024250871
81.756906,0.0011723339,0.0073175556,-28.359715,0.22093996,135.72577,55.941687,0.024331211
81.856906,0.00097289113,0.0074410913,-28.293618,0.22113709,135.80852,55.888386,0.024331211
81.956906,0.0008004273,0.007564627,-28.222707,0.22133423,135.89126,55.835086,0.024331211
82.056906,0.00080347053,0.0076881626,-28.151796,0.22153136,135.97141,55.795201,0.024331211
82.156906,0.00080651376,0.0078116983,-28.080884,0.22172849,136.0473,55.822242,0.024339589
82.256906,0.00080955699,0.0079352339,-28.009973,0.22192563,136.1232,55.849284,0.024361615
82.356906,0.00081260023,0.0080268829,-27.935954,0.22212276,136.19909,55.876325,0.024383641
82.456906,0.00081564346,0.0081037378,-27.861569,0.2223199,136.27445,55.903367,0.024405667
82.556906,0.00081868669,0.0081805926,-27.787184,0.22251703,136.33179,55.930408,0.024424271
82.656906,0.00082172992,0.0082574475,-27.712799,0.22271416,136.38914,55.95745,0.024418828
82.756906,0.00082477315,0.0083343023,-27.638414,0.2229113,136.44649,55.984491,0.024413385
82.856906,0.00082781639,0.0084111572,-27.620974,0.22310843,136.50383,56.011533,0.024407942
82.956906,0.00097687942,0.0084880121,-27.610311,0.22330556,136.60096,56.038574,0.0244025
83.056906,0.0012468057,0.0085648669,-27.599649,0.2235027,136.71669,56.065615,0.024309805
83.156906,0.0015167319,0.0086417218,-27.588986,0.22369983,136.83243,56.092657,0.024203134
83.256906,0.0017866581,0.0087161636,-27.578324,0.22389696,136.94816,56.119698,0.024096464
83.356906,0.0020565844,0.0084900015,-27.545012,0.2240941,137.03825,56.14674,0.023989793
83.456906,0.0023265106,0.0082638393,-27.508974,0.22429123,137.07819,56.170173,0.023908184
83.556906,0.0025964368,0.0080376772,-27.472936,0.22448837,137.11813,56.170173,0.023843551
83.656906,0.0028663631,0.0078115151,-27.436898,0.2246855,137.15807,56.170173,0.023778917
83.756906,0.0031362893,0.0075853529,-27.400859,0.22488263,137.198,56.170173,0.023714284
83.856906,0.0034062155,0.0073591908,-27.357418,0.22507977,137.15192,56.170173,0.023698158
83.956906,0.0033950026,0.0071330286,-27.313076,0.2252769,137.1056,56.170173,0.023779787
84.056906,0.0033723854,0.0069068665,-27.268734,0.22547403,137.05928,56.170173,0.023861415
84.156906,0.0033497683,0.0066807043,-27.224392,0.22567117,137.01296,56.170173,0.023943044
84.256906,0.0033271512,0.0064890834,-27.180049,0.2258683,136.95614,56.170173,0.024025227
84.356906,0.0033045341,0.0063671445,-27.122018,0.22606543,136.89296,56.170173,0.024114874
84.456906,0.0032819169,0.0062452056,-27.062303,0.22626257,136.82979,56.170173,0.024204521
84.556906,0.0032592998,0.0061232668,-27.002588,0.2264597,136.76662,56.170173,0.024294168
84.656906,0.0032366827,0.0060013279,-26.942873,0.22665684,136.72156,56.170173,0.024383815
84.756906,0.0032140656,0.005879389,-26.883158,0.22685397,136.73928,56.170173,0.024537949
