time(s),C_Active,L_Active,itp_Po,itp_Temp,itp_HR,itp_RR,itp_HRV
50.878635,0.021068604,0.062315249,-23.721861,0.019321611,169.10203,53.981648,0.01409916
50.978635,0.019229062,0.063207964,-23.721861,0.019980199,168.96466,54.074891,0.014122543
51.078635,0.017389519,0.06410068,-23.721861,0.020638787,168.81722,54.168134,0.014146046
51.178635,0.015549977,0.064993396,-23.721861,0.021297375,168.65458,54.261377,0.014175362
51.278635,0.013710435,0.065886112,-23.721861,0.021955963,168.49194,54.354619,0.014204677
51.378635,0.011870893,0.066778828,-23.721861,0.022614551,168.32931,54.447862,0.014233993
51.478635,0.010031351,0.062771822,-23.721861,0.02327314,168.24907,54.541105,0.014257203
51.578635,0.0081918084,0.058157125,-23.721861,0.023931728,168.24907,54.634348,0.014260966
51.678635,0.0068922743,0.053542429,-23.721861,0.024590316,168.24907,54.727591,0.01426473
51.778635,0.0093325517,0.048927733,-23.721861,0.025248904,168.24907,54.820834,0.014268494
51.878635,0.011772829,0.044313036,-23.721861,0.025907492,168.24907,54.914076,0.014278524
51.978635,0.014213106,0.03969834,-23.721861,0.02656608,168.24907,55.007319,0.014296053
52.078635,0.016653384,0.035083644,-23.721861,0.027224669,168.24907,55.100562,0.014313583
52.178635,0.019093661,0.030468947,-23.721861,0.027883257,168.24907,55.193805,0.014331113
52.278635,0.021533939,0.025854251,-23.721861,0.028541845,167.98526,55.287048,0.014336906
52.378635,0.023974216,0.022195619,-23.721861,0.029200433,167.5928,55.384047,0.014336906
52.478635,0.026414493,0.027247482,-23.721861,0.029859021,167.20033,55.483749,0.014336906
52.578635,0.028854771,0.032299346,-23.721861,0.030517609,166.80787,55.58345,0.014336906
52.678635,0.02971858,0.03735121,-23.721861,0.031176198,166.44247,55.683152,0.014336906
52.778635,0.029716159,0.042403074,-23.721618,0.031834786,166.08666,55.782853,0.014336906
52.878635,0.029713739,0.047454938,-23.72034,0.032493374,165.73085,55.882555,0.014336906
52.978635,0.029711318,0.052506802,-23.719062,0.033151962,165.37505,55.982256,0.014334777
53.078635,0.029708898,0.057558666,-23.717784,0.03381055,165.14156,56.081958,0.014311777
53.178635,0.029706477,0.06261053,-23.716507,0.034469138,164.94538,56.181659,0.014288776
53.278635,0.029704056,0.067662394,-23.715471,0.035126335,164.7492,56.281361,0.014265776
53.378635,0.029701636,0.071001756,-23.715471,0.035763357,164.55302,56.381062,0.014247562
53.478635,0.029699215,0.07049621,-23.715471,0.036400379,164.25133,56.480764,0.014240399
53.578635,0.029530217,0.069990665,-23.715471,0.037037402,163.92092,56.580465,0.014233237
53.678635,0.028510909,0.06948512,-23.715471,0.037674424,163.59052,56.680167,0.014226075
53.778635,0.0274916,0.068979575,-23.715471,0.038311446,163.26011,56.721292,0.014222561
53.878635,0.026472292,0.068474029,-23.715471,0.038948469,163.15892,56.686207,0.014222561
53.978635,0.025452983,0.067968484,-23.715471,0.039585491,163.13173,56.651122,0.014222561
54.078635,0.024433675,0.067462939,-23.715471,0.040222513,163.10454,56.616037,0.014222561
54.178635,0.023414366,0.066957394,-23.715471,0.040859536,163.07735,56.580953,0.014288314
54.278635,0.022395058,0.066451848,-23.715471,0.041496558,163.02338,56.545868,0.014380323
54.378635,0.021375749,0.06459837,-23.715471,0.04213358,162.95909,56.510783,0.014472331
54.478635,0.020356441,0.061487561,-23.715471,0.042770603,162.8948,56.475698,0.014564339
54.578635,0.019736839,0.058376753,-23.715471,0.043407625,162.83051,56.440613,0.014572019
54.678635,0.019303122,0.055265945,-23.715471,0.044044647,162.79457,56.405528,0.014572019
54.778635,0.018869405,0.052155136,-23.719711,0.04468167,162.77193,56.370443,0.014572019
54.878635,0.018435689,0.049044328,-23.74236,0.045318692,162.74929,56.335358,0.014574933
54.978635,0.018001972,0.04593352,-23.765009,0.045955714,162.72665,56.300273,0.014600222
55.078635,0.017568255,0.042822711,-23.787658,0.046592737,162.70151,56.265188,0.01462551
55.178635,0.017134538,0.039711903,-23.810307,0.047229759,162.67495,56.239134,0.014650799
55.278635,0.016700821,0.036601095,-23.833223,0.047866781,162.6484,56.239134,0.014668205
55.378635,0.016267105,0.057576921,-23.857305,0.048503804,162.62185,56.239134,0.014668205
55.478635,0.015878288,0.087614383,-23.881387,0.049140826,162.62671,56.239134,0.014668205
55.578635,0.015667902,0.11765185,-23.90547,0.049777848,162.6528,56.239134,0.014668205
55.678635,0.015457516,0.14768931,-23.929552,0.050414871,162.67889,56.239134,0.014690318
55.778635,0.015247129,0.17772677,-23.94961,0.051051893,162.70498,56.239134,0.014734064
55.878635,0.015036743,0.20776423,-23.951985,0.051688915,162.82693,56.239134,0.01477781
55.978635,0.014826356,0.23780169,-23.95436,0.052325937,163.0257,56.239134,0.014821557
56.078635,0.01461597,0.26783916,-23.956735,0.05296296,163.22448,56.239134,0.014849204
56.178635,0.014405584,0.29787662,-23.959109,0.053599982,163.42326,56.239134,0.014869887
56.278635,0.014195197,0.32791408,-23.965255,0.054237004,163.64871,56.239134,0.01489057
56.378635,0.013984811,0.311223,-23.988074,0.054874027,163.89747,56.239134,0.014911253
56.478635,0.014710524,0.29133565,-24.010894,0.055511049,164.14622,56.239134,0.014913553
56.578635,0.015800712,0.2714483,-24.033713,0.056148071,164.39498,56.239134,0.014913553
56.678635,0.016890901,0.25156096,-24.056532,0.056785094,164.61654,56.181984,0.014913553
56.778635,0.017981089,0.23167361,-24.079418,0.057422116,164.81629,56.099606,0.014911301
56.878635,0.019071278,0.21178626,-24.102597,0.058059138,165.01605,56.017228,0.014882345
56.978635,0.020161466,0.19189891,-24.125777,0.058696161,165.2158,55.934849,0.014853389
57.078635,0.021251655,0.17201157,-24.148957,0.059333183,165.42452,55.852471,0.014824433
57.178635,0.022341843,0.15212422,-24.172136,0.059970205,165.63934,55.770093,0.014803135
57.278635,0.023432031,0.13421511,-24.195331,0.060605412,165.85415,55.687715,0.014803135
57.378635,0.024317826,0.12801166,-24.218593,0.061214302,166.06896,55.605337,0.014803135
57.478635,0.024552675,0.1218082,-24.241855,0.061823191,166.23164,55.522958,0.014803135
57.578635,0.024787523,0.11560475,-24.265117,0.062432081,166.36931,55.44058,0.014879188
57.678635,0.025022372,0.10940129,-24.28838,0.063040971,166.50699,55.358202,0.015048485
57.778635,0.02525722,0.10319784,-24.311142,0.06364986,166.64466,55.275824,0.015217781
57.878635,0.025492069,0.096994379,-24.331652,0.06425875,166.65683,55.193445,0.015387078
57.978635,0.025726918,0.090790924,-24.352162,0.06486764,166.62946,55.111067,0.01548107
58.078635,0.025961766,0.084587468,-24.372673,0.065476529,166.60209,55.032079,0.015531624
58.178635,0.026196615,0.078384012,-24.393183,0.066085419,166.57472,55.032079,0.015582179
58.278635,0.026431464,0.076282974,-24.41363,0.066694309,166.72288,55.032079,0.015632733
58.378635,0.025371156,0.081715383,-24.433791,0.067303198,166.90478,55.032079,0.015773939
58.478635,0.023897731,0.087147792,-24.453952,0.067912088,167.08668,55.032079,0.015934799
58.578635,0.022424305,0.092580201,-24.474113,0.068520978,167.26858,55.032079,0.01609566
58.678635,0.02095088,0.09801261,-24.494274,0.069129867,167.30377,55.032079,0.016256541
58.778635,0.019477455,0.10344502,-24.514366,0.069738757,167.33053,55.032079,0.016423677
58.878635,0.01800403,0.10887743,-24.534142,0.070347647,167.35729,55.032079,0.016590813
58.978635,0.016530605,0.11430984,-24.553918,0.070956536,167.38235,55.032079,0.016757949
59.078635,0.015057179,0.11974225,-24.573693,0.071565426,167.38235,55.032079,0.0168942
59.178635,0.013583754,0.12517466,-24.593469,0.072174316,167.38235,55.032079,0.016892929
59.278635,0.012486315,0.12145521,-24.612899,0.072783205,167.38235,55.032079,0.016891659
59.378635,0.012368423,0.11057872,-24.630746,0.073392095,167.3561,55.032079,0.016890388
59.478635,0.012250531,0.099702221,-24.648592,0.074000985,167.21109,55.032079,0.016889577
59.578635,0.012132639,0.088825725,-24.666439,0.074609874,167.06607,55.032079,0.016889577
59.678635,0.012014747,0.077949228,-24.684285,0.075218764,166.92106,54.999375,0.016889577
59.778635,0.011896855,0.067072732,-24.702211,0.075827654,166.78647,54.919489,0.016889577
59.878635,0.011778963,0.056196236,-24.720505,0.076436543,166.67711,54.839602,0.016889577
59.978635,0.011661071,0.04531974,-24.7388,0.077045433,166.56774,54.759715,0.016889577
60.078635,0.011543178,0.034443243,-24.757094,0.077654323,166.45838,54.679829,0.016889577
60.178635,0.011425286,0.023566747,-24.775388,0.078263212,166.35939,54.599942,0.016889577
60.278635,0.012916017,0.025764027,-24.79044,0.078872102,166.27645,54.520056,0.016887676
60.378635,0.014819003,0.031857218,-24.79044,0.079480992,166.19351,54.440169,0.016885015
60.478635,0.016721989,0.037950408,-24.79044,0.080089881,166.11056,54.360283,0.016882354
60.578635,0.018624974,0.044043599,-24.79044,0.080698771,166.09279,54.280396,0.016879693
60.678635,0.02052796,0.05013679,-24.79044,0.081307661,166.14377,54.20051,0.016879398
60.778635,0.022430945,0.05622998,-24.794559,0.08191655,166.19476,54.120623,0.016879398
60.878635,0.024333931,0.062323171,-24.817924,0.08252544,166.24575,54.040737,0.016879398
60.978635,0.026236916,0.068416362,-24.841288,0.08313433,166.18409,53.96085,0.016879398
61.078635,0.028139902,0.074509552,-24.864653,0.083743219,166.04141,53.880964,0.016879398
61.178635,0.029275244,0.080602743,-24.888017,0.084352109,165.89873,53.801077,0.016879398
61.278635,0.028728753,0.078084176,-24.908982,0.084958372,165.75605,53.745578,0.016879398
61.378635,0.028182262,0.075383086,-24.918668,0.085526567,165.64183,53.709063,0.016879398
61.478635,0.027635771,0.072681995,-24.928354,0.086094762,165.54161,53.672548,0.016879398
61.578635,0.027089281,0.069980905,-24.938041,0.086662957,165.4414,53.636033,0.016879398
61.678635,0.02654279,0.067279814,-24.947727,0.087231151,165.34118,53.599518,0.016879398
61.778635,0.025996299,0.064578724,-24.9597,0.087799346,165.25492,53.563003,0.016879398
61.878635,0.025449809,0.061877633,-24.982494,0.088367541,165.1733,53.526488,0.016879398
61.978635,0.024903318,0.059176543,-25.005289,0.088935736,165.09169,53.489973,0.016879398
62.078635,0.024356827,0.056475453,-25.028083,0.08950393,165.01008,53.453458,0.016879398
62.178635,0.023109307,0.054157739,-25.050878,0.090072125,164.9112,53.416943,0.016879398
62.278635,0.021720814,0.05349932,-25.074069,0.09064032,164.80855,53.380428,0.016879398
62.378635,0.020332322,0.052840901,-25.099154,0.091208515,164.7059,53.343913,0.016879398
62.478635,0.01894383,0.052182482,-25.124239,0.091776709,164.60326,53.307397,0.016879398
62.578635,0.017555337,0.051524063,-25.149324,0.092344904,164.58287,53.270882,0.016879398
62.678635,0.016166845,0.050865644,-25.174409,0.092913099,164.57306,53.234367,0.016879398
62.778635,0.014778353,0.050207225,-25.198438,0.093481294,164.56324,53.197852,0.016879398
62.878635,0.01338986,0.049548806,-25.217409,0.094049488,164.55343,53.189706,0.016879398
62.978635,0.012001368,0.048890387,-25.23638,0.094617683,164.38279,53.217437,0.016879398
63.078635,0.011568785,0.048231968,-25.25535,0.095185878,164.2036,53.245168,0.016879398
63.178635,0.012897642,0.048845107,-25.274321,0.095754073,164.02441,53.272899,0.016879398
63.278635,0.014226499,0.051390234,-25.291433,0.096322267,163.84522,53.300629,0.016879587
63.378635,0.015555356,0.053935361,-25.299583,0.096890462,163.84477,53.32836,0.01688224
63.478635,0.016884213,0.056480488,-25.307733,0.097458657,163.84477,53.356091,0.016884893
63.578635,0.01821307,0.059025615,-25.315883,0.098026852,163.84477,53.383822,0.016887545
63.678635,0.019541927,0.061570742,-25.324033,0.098595046,163.83556,53.411553,0.016889577
63.778635,0.020870784,0.064115869,-25.334391,0.099163241,163.62857,53.439284,0.016889577
63.878635,0.022199641,0.066660996,-25.355467,0.099731436,163.42157,53.467015,0.016889577
63.978635,0.023528498,0.069206123,-25.376542,0.10029963,163.21458,53.494746,0.016889577
64.078635,0.025432105,0.07175125,-25.397618,0.10086783,163.00771,53.522477,0.016889577
64.178635,0.027420546,0.071870513,-25.418693,0.10143602,162.80235,53.550208,0.016889577
64.278635,0.029408986,0.070409715,-25.439832,0.10200421,162.59699,53.577938,0.016889577
64.378635,0.031397426,0.068948917,-25.461281,0.10257241,162.39164,53.605669,0.016889577
64.478635,0.033385866,0.067488119,-25.48273,0.1031406,162.20534,53.613844,0.016889577
64.578635,0.035374306,0.066027321,-25.50418,0.1037088,162.20534,53.585144,0.016889577
64.678635,0.037362746,0.064566523,-25.525629,0.10427699,162.20534,53.556445,0.016889577
64.778635,0.039351186,0.063105725,-25.543452,0.10484519,162.20534,53.527746,0.016889577
64.878635,0.041339626,0.061644927,-25.543452,0.10541338,162.20534,53.499046,0.016889577
64.978635,0.041090689,0.060184129,-25.543452,0.10598158,162.20534,53.470347,0.016889577
65.078635,0.037362984,0.058723331,-25.543452,0.10654977,162.20534,53.441648,0.016889577
65.178635,0.033635279,0.059621878,-25.543452,0.10711797,162.20534,53.412949,0.016889577
65.278635,0.029907574,0.061055788,-25.543602,0.10768251,162.1972,53.384249,0.016889577
65.378635,0.02617987,0.062489698,-25.544499,0.10819418,162.153,53.35555,0.016889577
65.478635,0.022452165,0.063923608,-25.545396,0.10870586,162.1088,53.326851,0.016889577
65.578635,0.01872446,0.065357518,-25.546292,0.10921753,162.0646,53.298151,0.016889092
65.678635,0.014996755,0.066791429,-25.547189,0.1097292,162.02509,53.269452,0.01686854
65.778635,0.01126905,0.068225339,-25.551572,0.11024087,162.00035,53.240753,0.016847989
65.878635,0.0075413455,0.069659249,-25.573317,0.11075254,161.9756,53.212053,0.016827437
65.978635,0.0071128862,0.071093159,-25.595063,0.11126421,161.95085,53.183354,0.016809294
66.078635,0.0070082793,0.07239011,-25.616808,0.11177588,161.86743,53.172356,0.016802344
66.178635,0.0069036725,0.067901036,-25.638553,0.11228755,161.64319,53.222879,0.016795394
66.278635,0.0067990656,0.063411963,-25.660356,0.11279922,161.41894,53.273402,0.016788444
66.378635,0.0066944587,0.058922889,-25.682447,0.11331089,161.19469,53.323925,0.016783781
66.478635,0.0065898518,0.054433815,-25.704538,0.11382256,161.04478,53.374448,0.016783781
66.578635,0.006485245,0.049944741,-25.726629,0.11433423,161.04478,53.424971,0.016783781
66.678635,0.0063806381,0.045455667,-25.74872,0.1148459,161.04478,53.475494,0.016783781
66.778635,0.0062760312,0.040966594,-25.771001,0.11535757,161.04478,53.526017,0.016759908
66.878635,0.0060309465,0.03647752,-25.794239,0.11586924,160.96203,53.57654,0.016710113
66.978635,0.0055995087,0.031988446,-25.817477,0.11638092,160.75226,53.627063,0.016660319
67.078635,0.0051680709,0.028688323,-25.840714,0.11689259,160.5425,53.677586,0.016610525
67.178635,0.0047366331,0.029336396,-25.863952,0.11740426,160.33273,53.728109,0.016582706
67.278635,0.0043051952,0.02998447,-25.886076,0.11791593,160.1134,53.778632,0.016567825
67.378635,0.0038737574,0.030632544,-25.902546,0.1184276,159.88205,53.829155,0.016552944
67.478635,0.0034423196,0.031280617,-25.919016,0.11893927,159.6507,53.879678,0.016538063
67.578635,0.0030108818,0.031928691,-25.935485,0.11945094,159.41935,53.930201,0.016534765
67.678635,0.0025794439,0.032576765,-25.951955,0.11996261,159.29789,53.972525,0.016534765
67.778635,0.0021480061,0.033224838,-25.969846,0.12047428,159.29789,53.972525,0.016534765
67.878635,0.0020008658,0.033872912,-25.995005,0.12098595,159.29789,53.972525,0.016534765
67.978635,0.0018691253,0.034520985,-26.020163,0.12149762,159.29789,53.972525,0.016484475
68.078635,0.0017373848,0.034518222,-26.045321,0.12200929,159.31493,53.972525,0.016430163
68.178635,0.0016056444,0.033688571,-26.070479,0.12252096,159.34822,53.972525,0.016375851
68.278635,0.0014739039,0.03285892,-26.093818,0.12303263,159.3815,53.972525,0.016325546
68.378635,0.0013421635,0.032029269,-26.107798,0.1235443,159.41478,53.972525,0.016325546
68.478635,0.001210423,0.031199618,-26.121778,0.12405598,159.35507,53.972525,0.016325546
68.578635,0.0010786825,0.030369967,-26.135758,0.12456765,159.22899,53.972525,0.016325546
68.678635,0.00094694207,0.029540316,-26.149737,0.12507932,159.10291,53.972525,0.016325546
68.778635,0.00086463135,0.028710665,-26.165856,0.12559099,158.97683,53.972525,0.016325546
68.878635,0.00083905008,0.027881014,-26.193056,0.12610266,158.94977,53.972525,0.016325546
68.978635,0.0008134688,0.027051363,-26.220255,0.12661433,158.9778,53.972525,0.016325546
69.078635,0.00078788753,0.026053358,-26.247454,0.127126,159.00582,53.972525,0.016261588
69.178635,0.00076230625,0.024964094,-26.274654,0.12763767,159.03384,53.972525,0.016088429
69.278635,0.00073672498,0.023874829,-26.30212,0.12814455,159.05371,53.975961,0.015915269
69.378635,0.0007111437,0.022785565,-26.33098,0.12858193,159.07032,54.003454,0.015742109
69.478635,0.00068556243,0.0216963,-26.35984,0.12901932,159.08694,54.030946,0.01556829
69.578635,0.00065998116,0.020607035,-26.3887,0.1294567,159.10355,54.058439,0.015393866
69.678635,0.00063439988,0.019517771,-26.41756,0.12989409,159.02405,54.085931,0.015219441
69.778635,0.00066620488,0.018428506,-26.445692,0.13033147,158.91861,54.113424,0.015045017
69.878635,0.00069901475,0.017339242,-26.470002,0.13076886,158.81317,54.140916,0.014869287
69.978635,0.00073182462,0.016249977,-26.494312,0.13120624,158.70772,54.168408,0.014692965
70.078635,0.00076463449,0.015453602,-26.518622,0.13164363,158.65297,54.195901,0.014516644
70.178635,0.00079744435,0.014706402,-26.542931,0.13208101,158.60727,54.223393,0.014340322
70.278635,0.00083025422,0.013959201,-26.564498,0.1325184,158.56157,54.250886,0.014279187
70.378635,0.00086306409,0.013212001,-26.571569,0.13295578,158.51587,54.278378,0.014238018
70.478635,0.00089587396,0.012464801,-26.57864,0.13339317,158.61423,54.305871,0.01419685
70.578635,0.00092868383,0.011717601,-26.58571,0.13383055,158.72767,54.333363,0.014155901
70.678635,0.00093428388,0.010970401,-26.592781,0.13426794,158.84111,54.360856,0.01413169
70.778635,0.00091286453,0.010223201,-26.596989,0.13470532,158.95456,54.388348,0.014107478
70.878635,0.00089144519,0.0094760009,-26.585962,0.13514271,158.87276,54.402134,0.014083266
70.978635,0.00087002585,0.0087318096,-26.574935,0.13558009,158.78438,54.402134,0.014057986
71.078635,0.0008486065,0.0080304431,-26.563909,0.13601748,158.69601,54.402134,0.014027522
71.178635,0.00082718716,0.0073290767,-26.552882,0.13645486,158.61065,54.402134,0.013997058
71.278635,0.00080576782,0.0066277102,-26.547195,0.13689225,158.70347,54.402134,0.013966594
71.378635,0.00078434847,0.0059263437,-26.570117,0.13732963,158.7963,54.402134,0.013921141
71.478635,0.00076292913,0.0052249773,-26.593039,0.13776702,158.88913,54.402134,0.013844624
71.578635,0.0007432666,0.0045236108,-26.615961,0.1382044,158.96536,54.402134,0.013768107
71.678635,0.0008106126,0.0038222444,-26.638883,0.13864179,158.81765,54.402134,0.01369159
71.778635,0.00087795861,0.0031208779,-26.660621,0.13907917,158.66994,54.402134,0.013643093
71.878635,0.00094530461,0.0024195115,-26.67597,0.13951656,158.52223,54.402134,0.013625212
71.978635,0.0010126506,0.0018705856,-26.691319,0.13995394,158.37492,54.402134,0.013607332
72.078635,0.0010799966,0.0017259204,-26.706668,0.14039133,158.23068,54.402134,0.013589452
72.178635,0.0011473426,0.0015812552,-26.722018,0.14082871,158.08645,54.402134,0.01345979
72.278635,0.0012146886,0.00143659,-26.738708,0.1412661,157.94222,54.402134,0.013263753
72.378635,0.0012820346,0.0012919248,-26.762688,0.14170348,157.80885,54.402134,0.013067717
72.478635,0.0013493806,0.0011472596,-26.786667,0.14214087,157.73807,54.35961,0.012871681
72.578635,0.0013779895,0.0010025944,-26.810646,0.14257825,157.6673,54.310574,0.012827887
72.678635,0.0013734767,0.0008579292,-26.834626,0.14301564,157.59653,54.261537,0.012827887
72.778635,0.0013689639,0.00071326401,-26.857539,0.14345302,157.52699,54.2125,0.012827887
72.878635,0.001364451,0.00056859881,-26.874621,0.14389041,157.46348,54.163463,0.012827887
72.978635,0.0013599382,0.000484316,-26.891703,0.14432779,157.39997,54.114426,0.01282093
73.078635,0.0013554254,0.00046492578,-26.908785,0.14476518,157.33646,54.06539,0.01281341
73.178635,0.0013509125,0.00044553556,-26.925867,0.14520256,157.30922,54.016353,0.01280589
73.278635,0.0013463997,0.00042614534,-26.942962,0.14563408,157.43935,53.967316,0.012785235
