time(s),C_Active,L_Active,itp_Po,itp_Temp,itp_HR,itp_RR,itp_HRV
62.443528,0.0014061649,,-28.145029,0.42525453,174.13582,56.711266,0.039625241
62.543528,0.0014440533,,-28.170064,0.42588456,174.13648,56.657346,0.039622337
62.643528,0.0014819418,,-28.1951,0.42651458,174.0108,56.603426,0.039726108
62.743528,0.0015198302,,-28.220135,0.42714461,173.88512,56.565401,0.040093993
62.843528,0.0015577186,,-28.228293,0.42777464,173.75944,56.623465,0.040461878
62.943528,0.001595607,0.061277484,-28.232759,0.42840467,173.66563,56.681529,0.040829764
63.043528,0.0016058864,0.05534833,-28.237225,0.42903362,173.66563,56.739593,0.041122435
63.143528,0.0015776832,0.049419177,-28.241691,0.42958886,173.66563,56.797657,0.041122435
63.243528,0.00154948,0.043490023,-28.246157,0.4301441,173.66563,56.855721,0.041122435
63.343528,0.0015212768,0.037560869,-28.265328,0.43069935,173.60583,56.913785,0.041122435
63.443528,0.0014930736,0.031631716,-28.287735,0.43125459,173.46998,56.971849,0.041181617
63.543528,0.0014648705,0.025702562,-28.310143,0.43180983,173.33413,57.029913,0.041691477
63.643528,0.0014366673,0.019773408,-28.33255,0.43236508,173.19828,57.087977,0.042201338
63.743528,0.0014084641,0.013844254,-28.354957,0.43292032,173.0592,57.146041,0.042711199
63.843528,0.0013802609,0.0079151007,-28.368306,0.43347556,172.91789,57.204105,0.043218196
63.943528,0.0013520577,0.004931621,-28.379648,0.43403081,172.77658,57.262169,0.043218196
64.043528,0.0015625812,0.0045434537,-28.39099,0.43458605,172.63527,57.212517,0.043218196
64.143528,0.0017878768,0.0041552863,-28.402333,0.4351413,172.49258,57.136002,0.043218196
64.243528,0.0020131724,0.003767119,-28.413675,0.43569654,172.3493,57.059487,0.043218196
64.343528,0.002238468,0.0033789516,-28.435282,0.43625178,172.20602,56.982971,0.043198582
64.443528,0.0024637636,0.0029907843,-28.459176,0.43680703,172.06274,56.906456,0.043176804
64.543528,0.0026890592,0.002602617,-28.48307,0.43736227,172.02934,56.82994,0.043155026
64.643528,0.0029143548,0.0022144496,-28.506964,0.43791751,172.02934,56.753425,0.043133248
64.743528,0.0031396504,0.0018262823,-28.530858,0.43847276,172.02934,56.676909,0.042708168
64.843528,0.003364946,0.0014381149,-28.552967,0.439028,172.02934,56.600394,0.042182335
64.943528,0.0035660356,0.0013604624,-28.574675,0.43958324,172.08608,56.523878,0.041656502
65.043528,0.003739356,0.0013327884,-28.596383,0.44013849,172.15435,56.447363,0.041130669
65.143528,0.0039126763,0.0013051143,-28.618092,0.44069373,172.22262,56.370847,0.041333493
65.243528,0.0040859967,0.0012774403,-28.6398,0.44124897,172.29089,56.318767,0.041856983
65.343528,0.0042593171,0.0012497662,-28.661485,0.44180422,172.39804,56.318767,0.042380473
65.443528,0.0044326374,0.0012220922,-28.683165,0.44235946,172.50949,56.318767,0.042903963
65.543528,0.0046059578,0.0011944181,-28.704846,0.4429147,172.62094,56.318767,0.04322471
65.643528,0.0047792782,0.0011667441,-28.726526,0.44346995,172.73238,56.318767,0.043392712
65.743528,0.0049525985,0.00113907,-28.748206,0.44402519,172.86154,56.318767,0.043560714
65.843528,0.0051259189,0.0011109698,-28.764673,0.44458043,172.99084,56.318767,0.043728716
65.943528,0.0047102287,0.0010810257,-28.779956,0.44513568,173.12014,56.318767,0.044040818
66.043528,0.0042881424,0.0010510816,-28.79524,0.44569092,173.24481,56.318767,0.044548187
66.143528,0.0038660561,0.0010211374,-28.810524,0.44624616,173.33456,56.318767,0.045055555
66.243528,0.0034439698,0.00099119328,-28.825807,0.44680141,173.42431,56.318767,0.045562924
66.343528,0.0030218835,0.00096124914,-28.842208,0.44735665,173.51406,56.318767,0.045832444
66.443528,0.0025997972,0.000931305,-28.858863,0.4479119,173.5714,56.318767,0.045486002
66.543528,0.002177711,0.00090136086,-28.875519,0.44846714,173.53414,56.271663,0.04513956
66.643528,0.0017556247,0.00087141671,-28.892175,0.44902238,173.49688,56.213531,0.044793119
66.743528,0.0013335384,0.00084147257,-28.90883,0.44957763,173.45962,56.1554,0.044424396
66.843528,0.0011424244,0.00082530897,-28.930784,0.45013287,173.45964,56.097268,0.04391964
66.943528,0.0011714098,0.00082207455,-28.953956,0.45068811,173.51875,56.039136,0.043414885
67.043528,0.0012003952,0.00081884013,-28.977127,0.45124239,173.57785,55.981004,0.042910129
67.143528,0.0012293806,0.00081560572,-29.000299,0.45173057,173.63696,55.922872,0.042405407
67.243528,0.001258366,0.0008123713,-29.02347,0.45221875,173.68731,55.86474,0.041922916
67.343528,0.0012873514,0.00080913688,-29.043921,0.45270693,173.73088,55.806608,0.041440424
67.443528,0.0013163368,0.00080590247,-29.063744,0.45319511,173.77445,55.748476,0.040957933
67.543528,0.0013453222,0.00080266805,-29.083567,0.45368329,173.81802,55.690344,0.040475441
67.643528,0.0013743076,0.00079943363,-29.10339,0.45417148,173.82906,55.632212,0.039965493
67.743528,0.0014009781,0.00079619921,-29.123212,0.45465966,173.82906,55.574511,0.039451332
67.843528,0.0013642995,0.000773055,-29.142239,0.45514784,173.82906,55.528975,0.038937171
67.943528,0.001327621,0.00074628521,-29.16108,0.45563602,173.82906,55.48344,0.03842301
68.043528,0.0012909424,0.00071951542,-29.179921,0.4561242,173.82906,55.437904,0.038255181
68.143528,0.0012542639,0.00069274563,-29.198762,0.45661238,173.82906,55.392368,0.038217247
68.243528,0.0012175853,0.00066597584,-29.217603,0.45710056,173.82906,55.346832,0.038179312
68.343528,0.0011809068,0.00063920605,-29.236609,0.45758874,173.82906,55.301297,0.038141378
68.443528,0.0011442282,0.00061243626,-29.255654,0.45807692,173.82906,55.255761,0.038317889
68.543528,0.0011075497,0.00058566646,-29.274699,0.4585651,173.82906,55.210225,0.038646874
68.643528,0.0010708712,0.00055889667,-29.293744,0.45905328,173.82906,55.16469,0.038975858
68.743528,0.0010792308,0.00053300609,-29.312789,0.45954146,173.82906,55.119154,0.039304843
68.843528,0.0011232307,0.00051127535,-29.331873,0.46002964,173.82906,55.073618,0.039586826
68.943528,0.0011672307,0.00048954461,-29.350966,0.46051783,173.82906,55.028082,0.039810326
69.043528,0.0012112306,0.00046781388,-29.370058,0.46100601,173.82906,54.987178,0.040033826
69.143528,0.0012552306,0.00044608314,-29.389151,0.46149419,173.82906,55.045845,0.040257325
69.243528,0.0012992306,0.0004243524,-29.408244,0.46198237,173.82906,55.104512,0.040542461
69.343528,0.0013432305,0.00040262166,-29.419506,0.46247055,173.82906,55.163179,0.040966791
69.443528,0.0013872305,0.00038089092,-29.428915,0.46295873,173.82086,55.221845,0.041391122
69.543528,0.0014312304,0.00035916018,-29.438324,0.46344691,173.72463,55.280512,0.041815452
69.643528,0.0014646912,0.00033742944,-29.447732,0.46393509,173.62841,55.339179,0.042170321
69.743528,0.0013786359,0.00032765914,-29.457141,0.46442327,173.53219,55.397846,0.042170321
69.843528,0.0012925807,0.00032984833,-29.465615,0.46491145,173.43137,55.456512,0.042170321
69.943528,0.0012065254,0.00033203752,-29.473867,0.46539963,173.32344,55.515179,0.042170321
70.043528,0.0011204701,0.0003342267,-29.482118,0.46588781,173.21551,55.573846,0.04216824
70.143528,0.0010344148,0.00033641589,-29.490369,0.466376,173.10758,55.632513,0.042098379
70.243528,0.0009483595,0.00033860508,-29.498621,0.46686418,173.01485,55.691179,0.042028517
70.343528,0.00086230422,0.00034079427,-29.506838,0.46735236,172.92896,55.734369,0.041958656
70.443528,0.00077624893,0.00034298346,-29.515046,0.46784054,172.84307,55.734369,0.041888795
70.543528,0.00069019364,0.00034517265,-29.523255,0.46832872,172.75718,55.734369,0.042282465
70.643528,0.00064756895,0.00034736183,-29.531464,0.4688169,172.66001,55.734369,0.042734605
70.743528,0.00063347883,0.00037433402,-29.539673,0.46930508,172.56261,55.734369,0.043186745
70.843528,0.00061938871,0.0004064613,-29.54711,0.46979326,172.4652,55.734369,0.043638885
70.943528,0.00060529859,0.00043858858,-29.554361,0.47028144,172.3592,55.734369,0.043672443
71.043528,0.00059120847,0.00047071585,-29.561613,0.47076881,172.2287,55.734369,0.043564633
71.143528,0.00057711835,0.00050284313,-29.568864,0.47120058,172.09819,55.734369,0.043456822
71.243528,0.00056302823,0.00053497041,-29.576115,0.47163236,171.96769,55.734369,0.043349011
71.343528,0.00054893811,0.00056709769,-29.583182,0.47206413,171.83765,55.734369,0.043343008
71.443528,0.00053484799,0.00059922497,-29.590203,0.47249591,171.70803,55.734369,0.043401441
71.543528,0.0005228869,0.00063135224,-29.597225,0.47292768,171.57841,55.734369,0.043459874
71.643528,0.00052569013,0.00067129215,-29.604246,0.47335946,171.44879,55.734369,0.043518306
71.743528,0.00052849337,0.000754184,-29.611268,0.47379123,171.31645,55.734369,0.043342911
71.843528,0.0005312966,0.00083707586,-29.616533,0.474223,171.18338,55.734369,0.042922667
71.943528,0.00053409984,0.00091996772,-29.62137,0.47465478,171.05031,55.734369,0.042502423
72.043528,0.00053690307,0.0010028596,-29.626207,0.47508655,170.91692,55.734369,0.04208218
72.143528,0.00053970631,0.0010857514,-29.631044,0.47551833,170.77497,55.734369,0.041707563
72.243528,0.00054250954,0.0011686433,-29.635881,0.4759501,170.63302,55.734369,0.041410431
72.343528,0.00054531278,0.0012515351,-29.641577,0.47638187,170.49107,55.734369,0.041113299
72.443528,0.00054811601,0.001334427,-29.647482,0.47681365,170.33071,55.734369,0.040816168
72.543528,0.00054251355,0.0014173189,-29.653388,0.47724542,170.12134,55.734369,0.040597587
72.643528,0.00053236149,0.0038776666,-29.659294,0.4776772,169.91197,55.734369,0.040597587
72.743528,0.00052220943,0.0089101543,-29.6652,0.47810897,169.7026,55.734369,0.040597587
72.843528,0.00051205737,0.013942642,-29.670093,0.47854075,169.49018,55.734369,0.040597587
72.943528,0.00050190531,0.01897513,-29.674737,0.47897252,169.27468,55.764128,0.040589605
73.043528,0.00049175325,0.024007617,-29.67938,0.47940429,169.05918,55.804826,0.040534945
73.143528,0.0004816012,0.029040105,-29.684024,0.47983607,168.84368,55.845525,0.040480284
73.243528,0.00047144914,0.034072592,-29.688668,0.48026784,168.621,55.886223,0.040425624
73.343528,0.00046129708,0.03910508,-29.693244,0.48069962,168.39533,55.926922,0.040378474
73.443528,0.00046089322,0.044137568,-29.697804,0.48113139,168.16967,55.96762,0.040685921
73.543528,0.00050783724,0.049170055,-29.702363,0.48156316,167.944,56.008318,0.040993367
73.643528,0.00055478125,0.046435305,-29.706923,0.48199494,167.74421,56.049017,0.041300814
73.743528,0.00060172527,0.041845254,-29.711482,0.48242671,167.54819,56.089715,0.041608261
73.843528,0.00064866928,0.037255202,-29.715943,0.48285849,167.35218,56.130414,0.04125654
73.943528,0.00069561329,0.032665151,-29.720379,0.48329026,167.15423,56.171112,0.040828402
74.043528,0.00074255731,0.0280751,-29.724815,0.48372204,166.88556,56.21181,0.040400265
74.143528,0.00078950132,0.023485048,-29.729251,0.48415381,166.61689,56.25176,0.039972127
74.243528,0.00083644533,0.018894997,-29.733686,0.48458558,166.34822,56.25176,0.039564168
74.343528,0.00088338935,0.014304946,-29.738151,0.48501736,166.08186,56.25176,0.03916163
74.443528,0.00097288835,0.0097148943,-29.742623,0.48544913,165.82694,56.25176,0.038759092
74.543528,0.0010812771,0.0056924706,-29.747096,0.48588091,165.57201,56.25176,0.038356554
74.643528,0.0011896658,0.0053098881,-29.751568,0.48631268,165.31708,56.25176,0.037940406
74.743528,0.0012980546,0.0049273057,-29.75604,0.48674445,165.05467,56.25176,0.037518127
74.843528,0.0014064433,0.0045447232,-29.76144,0.48717623,164.77468,56.25176,0.037095848
74.943528,0.0015148321,0.0041621407,-29.767075,0.487608,164.4947,56.25176,0.036673568
75.043528,0.0016232208,0.0037795582,-29.772709,0.48803903,164.21471,56.25176,0.036251338
75.143528,0.0017316095,0.0033969757,-29.778343,0.4884191,163.92738,56.25176,0.035829139
75.243528,0.0018399983,0.0030143932,-29.783978,0.48879917,163.62809,56.25176,0.035406941
75.343528,0.0019161787,0.0026318107,-29.786205,0.48917923,163.32881,56.25176,0.034984742
75.443528,0.001874869,0.0022492282,-29.787569,0.4895593,163.02953,56.26978,0.034760562
75.543528,0.0018335593,0.0019893651,-29.788932,0.48993937,162.72265,56.33157,0.034717534
75.643528,0.0017922497,0.0018719657,-29.790296,0.49031944,162.40654,56.39336,0.034674506
75.743528,0.00175094,0.0017545662,-29.791659,0.4906995,162.09043,56.45515,0.034631478
75.843528,0.0017096303,0.0016371668,-29.794121,0.49107957,161.77432,56.51694,0.034594772
75.943528,0.0016683206,0.0015197673,-29.796863,0.49145964,161.46322,56.57873,0.034566102
76.043528,0.0016270109,0.0014023679,-29.799604,0.49183971,161.1569,56.64052,0.034537432
76.143528,0.0015857012,0.0012849684,-29.802346,0.49221977,160.85058,56.70231,0.034508762
76.243528,0.0015443915,0.001167569,-29.805088,0.49259984,160.54426,56.764101,0.03449467
76.343528,0.0014684656,0.0010501695,-29.805648,0.49297991,160.24878,56.825891,0.034506648
76.443528,0.0013801831,0.00093277007,-29.805648,0.49335998,159.96177,56.887681,0.034518626
76.543528,0.0012919007,0.00090307669,-29.805648,0.49374004,159.67477,56.949471,0.034530604
76.643528,0.0012036183,0.00089649603,-29.805648,0.49412011,159.38776,57.011261,0.034520985
76.743528,0.0011153358,0.00088991538,-29.805648,0.49450018,159.1108,57.009173,0.034454924
76.843528,0.0010270534,0.00088333472,-29.810055,0.49488024,158.84058,57.003935,0.034388864
76.943528,0.00093877093,0.00087675406,-29.815599,0.49526031,158.57035,56.998697,0.034322803
77.043528,0.00085048849,0.0008701734,-29.821142,0.49564038,158.30012,56.993458,0.034184901
77.143528,0.00076220604,0.00086359275,-29.826686,0.49602045,158.16467,56.98822,0.033746746
77.243528,0.00069707145,0.00085701209,-29.83223,0.49640051,158.11158,56.982981,0.033308591
77.343528,0.00069796494,0.00085043143,-29.836215,0.49678058,158.05849,56.977743,0.032870436
77.443528,0.00069885843,0.00084099818,-29.839796,0.49716065,158.00541,56.972504,0.032442957
77.543528,0.00069975192,0.00081045994,-29.843377,0.49754072,157.82945,56.967266,0.032099635
77.643528,0.00070064541,0.00077992169,-29.846957,0.49792078,157.5846,56.962027,0.031756313
77.743528,0.0007015389,0.00074938345,-29.850538,0.49830085,157.33975,56.956789,0.031412992
77.843528,0.00070243239,0.0007188452,-29.853339,0.49868092,157.0949,56.951551,0.031066037
77.943528,0.00070332588,0.00068830696,-29.855937,0.49906098,156.84725,56.918267,0.0306329
78.043528,0.00070421937,0.00065776871,-29.858534,0.49944105,156.5979,56.865204,0.030199762
78.143528,0.00070511286,0.00062723047,-29.861132,0.49982112,156.34855,56.812142,0.029766625
78.243528,0.00068521956,0.00059669223,-29.863729,0.50020119,156.0992,56.75908,0.029333488
78.343528,0.00065950809,0.00056615398,-29.868937,0.50058125,155.85177,56.706017,0.029010027
78.443528,0.00063379661,0.00055550211,-29.874829,0.50096132,155.60567,56.652955,0.028688454
78.543528,0.00060808514,0.00056957157,-29.880721,0.50134139,155.35958,56.599892,0.028366881
78.643528,0.00058237366,0.00058364104,-29.886613,0.50172146,155.11349,56.54683,0.028045308
78.743528,0.00055666219,0.0005977105,-29.892506,0.50210152,154.99293,56.493767,0.027897149
78.843528,0.00053095071,0.00061177996,-29.898305,0.50248159,154.99293,56.440705,0.027762783
78.943528,0.00050523924,0.00062584943,-29.904081,0.50286166,154.99293,56.387643,0.027628417
79.043528,0.00047952777,0.00063991889,-29.909856,0.50324088,154.99293,56.33458,0.02749405
79.143528,0.00046650969,0.00065398835,-29.915632,0.50356223,154.89494,56.287336,0.02717857
79.243528,0.00048255404,0.00066805781,-29.921407,0.50388358,154.6603,56.287336,0.026836729
79.343528,0.0004985984,0.00068212728,-29.925144,0.50420493,154.42565,56.287336,0.026494889
79.443528,0.00051464275,0.00067021262,-29.928339,0.50452628,154.191,56.287336,0.026153048
79.543528,0.00053068711,0.00065060122,-29.931535,0.50484763,154.01929,56.287336,0.025799583
79.643528,0.00054673147,0.00063098983,-29.93473,0.50516897,154.01115,56.287336,0.025443535
79.743528,0.00056277582,0.00061137843,-29.937925,0.50549032,154.00301,56.287336,0.025087487
79.843528,0.00057882018,0.00059176704,-29.942666,0.50581167,153.99487,56.287336,0.024731438
79.943528,0.00059486453,0.00057215564,-29.947818,0.50613302,153.98784,56.287336,0.024377605
80.043528,0.00061090889,0.00055254425,-29.952971,0.50645437,153.98784,56.287336,0.024024411
80.143528,0.00060861116,0.00053293285,-29.958123,0.50677572,153.98784,56.287336,0.023671217
80.243528,0.00060243869,0.00051332145,-29.963275,0.50709707,153.98784,56.287336,0.023318023
80.343528,0.00059626621,0.00049797431,-29.968386,0.50741842,153.98784,56.287336,0.022976216
80.443528,0.00059009373,0.00052196134,-29.973486,0.50773977,153.98784,56.320632,0.022638414
80.543528,0.00058392126,0.00054594838,-29.978585,0.50806112,153.98784,56.383347,0.022300612
80.643528,0.00057774878,0.00056993542,-29.983685,0.50838246,153.98784,56.446062,0.02196281
80.743528,0.00057157631,0.00059392246,-29.988785,0.50870381,153.98784,56.508777,0.021615778
80.843528,0.00056540383,0.0006179095,-29.991155,0.50902516,153.79365,56.571492,0.021265137
80.943528,0.00055923136,0.00064189654,-29.992789,0.50934651,153.55991,56.634207,0.020914495
81.043528,0.00054895007,0.00066588358,-29.994423,0.50966786,153.32617,56.696922,0.020563854
81.143528,0.00053096661,0.00068987062,-29.996057,0.50998921,153.09243,56.759638,0.020241691
81.243528,0.00051298315,0.00071385766,-29.997692,0.51031056,152.85448,56.822353,0.019932029
81.343528,0.00049499969,0.00074445142,-30.001252,0.51063191,152.61431,56.885068,0.019622367
81.443528,0.00047701623,0.00078401732,-30.005335,0.51095326,152.37413,56.947783,0.019312705
81.543528,0.00045903278,0.00082358322,-30.009418,0.51127461,152.13396,57.010498,0.019011506
81.643528,0.00044104932,0.00086314912,-30.013501,0.51159596,151.99416,57.049538,0.01871436
81.743528,0.00042306586,0.00090271503,-30.017584,0.5119173,151.99416,57.048994,0.018417215
81.843528,0.0004050824,0.00094228093,-30.018459,0.51223865,151.99416,57.048449,0.018120069
81.943528,0.00038709894,0.00098184683,-30.018459,0.51256,151.99416,57.047905,0.018016683
82.043528,0.0003966137,0.0010214127,-30.018459,0.51288135,151.94245,57.04736,0.018015659
82.143528,0.00041023551,0.0010609786,-30.018459,0.5132027,151.6946,57.046816,0.018014635
82.243528,0.00042385732,0.0011005445,-30.018459,0.51352405,151.44674,57.046271,0.018013612
82.343528,0.00043747912,0.0010820026,-30.018459,0.5138454,151.19889,57.045727,0.018009974
82.443528,0.00045110093,0.0010442631,-30.018459,0.51416675,150.95104,57.045182,0.018004801
82.543528,0.00046472274,0.0010065236,-30.018459,0.5144881,150.72686,57.044637,0.017999629
82.643528,0.00047834455,0.00096878413,-30.018459,0.51480945,150.50305,57.044093,0.017994457
82.743528,0.00049196635,0.00093104466,-30.018459,0.51513079,150.27923,57.043548,0.017805374
82.843528,0.00050558816,0.00089330519,-30.018459,0.51545214,150.05542,57.043122,0.017495097
82.943528,0.00051315205,0.00085556571,-30.018459,0.51577349,149.87437,57.043122,0.01718482
83.043528,0.00051135324,0.00081782624,-30.018459,0.51609374,149.70775,57.043122,0.016874543
83.143528,0.00050955443,0.00078008677,-30.018459,0.5163386,149.54112,57.043122,0.016560555
83.243528,0.00050775562,0.00074526087,-30.018459,0.51658346,149.3745,57.043122,0.016243926
83.343528,0.00050595681,0.00074385708,-30.021808,0.51682833,149.21166,57.043122,0.015927297
83.443528,0.000504158,0.0007424533,-30.026085,0.51707319,149.05317,57.043122,0.015610668
83.543528,0.00050235919,0.00074104951,-30.030362,0.51731805,148.89468,57.043122,0.015373692
83.643528,0.00050056037,0.00073964572,-30.03464,0.51756291,148.73619,57.043122,0.01519798
83.743528,0.00049876156,0.00073824194,-30.038917,0.51780777,148.59784,57.043122,0.015022269
83.843528,0.00049696275,0.00073683815,-30.039849,0.51805263,148.59784,57.043122,0.014846558
83.943528,0.0005060304,0.00073543437,-30.039849,0.51829749,148.59784,57.043122,0.014673092
84.043528,0.00051609906,0.00073403058,-30.039849,0.51854236,148.59784,57.043122,0.014501432
84.143528,0.00052616771,0.0007326268,-30.039849,0.51878722,148.59784,57.043122,0.014329772
84.243528,0.00053623636,0.00074313845,-30.039849,0.51903208,148.54668,57.043122,0.014158111
84.343528,0.00054630501,0.00077082241,-30.04235,0.51927694,148.48177,57.043122,0.014000684
84.443528,0.00055637366,0.00079850638,-30.04555,0.5195218,148.41686,57.043122,0.013854651
