time(s),C_Active,L_Active,itp_Po,itp_Temp,itp_HR,itp_RR,itp_HRV
43.539823,0.0070293483,0.051489098,-28.822872,0.017916482,143.95624,50.036125,0.033903639
43.639823,0.0074224716,0.046854855,-28.823283,0.01861191,144.08759,50.074959,0.033997327
43.739823,0.0076210843,0.042220611,-28.823693,0.019307338,144.16922,50.113793,0.034106233
43.839823,0.007819697,0.037586367,-28.823787,0.020002766,144.25086,50.152627,0.034215139
43.939823,0.0080183096,0.032952124,-28.823787,0.020698195,144.3325,50.191461,0.034324045
44.039823,0.0082169223,0.028829365,-28.823787,0.021393623,144.41269,50.230295,0.034338224
44.139823,0.0084155349,0.027469227,-28.823787,0.022089051,144.42341,50.269129,0.034302797
44.239823,0.0086141476,0.026109089,-28.823787,0.022784479,144.43412,50.307963,0.03426737
44.339823,0.0088127602,0.024748951,-28.823787,0.023479907,144.44484,50.346797,0.034231943
44.439823,0.0090113729,0.023388813,-28.823787,0.024175335,144.45555,50.385631,0.034209838
44.539823,0.0092099855,0.022028675,-28.823787,0.024870763,144.47875,50.424465,0.034207584
44.639823,0.0090709939,0.020668537,-28.823787,0.025566192,144.50405,50.4633,0.034205329
44.739823,0.008783325,0.019308399,-28.823787,0.02626162,144.52935,50.502134,0.034203074
44.839823,0.0084956561,0.017948261,-28.814934,0.026957048,144.55464,50.540968,0.034205574
44.939823,0.0082079873,0.016588123,-28.803417,0.027652476,144.52405,50.579802,0.034235623
45.039823,0.0079203184,0.016284467,-28.7919,0.028347904,144.46874,50.614148,0.034265672
45.139823,0.0076326495,0.01645593,-28.780384,0.029043332,144.41344,50.633542,0.034295721
45.239823,0.0073449806,0.016627393,-28.768867,0.02973876,144.35813,50.652936,0.034325771
45.339823,0.0070573117,0.016798855,-28.766186,0.030434189,144.29813,50.672329,0.034317169
45.439823,0.0067696428,0.016970318,-28.766186,0.031129617,144.23356,50.691723,0.034304001
45.539823,0.0064819739,0.017141781,-28.766186,0.031825045,144.16898,50.711117,0.034290832
45.639823,0.0063862208,0.017313243,-28.766186,0.032520473,144.1044,50.730511,0.034277663
45.739823,0.0063129297,0.017484706,-28.766186,0.033215901,144.05452,50.749904,0.034301532
45.839823,0.0062396387,0.017656169,-28.755586,0.033911329,144.04196,50.769298,0.034346274
45.939823,0.0061663477,0.017845849,-28.741745,0.034606757,144.02939,50.788692,0.034391016
46.039823,0.0060930567,0.01809879,-28.727904,0.035302186,144.01683,50.808086,0.034435758
46.139823,0.0060197657,0.01835173,-28.714063,0.035997614,144.00501,50.827479,0.034534867
46.239823,0.0059464747,0.018604671,-28.700222,0.036693042,144.00501,50.846873,0.034720998
46.339823,0.0058731837,0.018857611,-28.689092,0.03738847,144.00501,50.866267,0.03490713
46.439823,0.0057998927,0.019110552,-28.678798,0.038083898,144.00501,50.88566,0.035093261
46.539823,0.005729127,0.019363492,-28.668504,0.038779326,144.00501,50.945403,0.035253989
46.639823,0.005682117,0.019616433,-28.65821,0.039474755,144.04282,51.04327,0.035253989
46.739823,0.005635107,0.019869373,-28.647916,0.040170183,144.08732,51.141138,0.035253989
46.839823,0.0055880969,0.020122314,-28.636907,0.04083755,144.13182,51.239006,0.035253989
46.939823,0.0055410869,0.021512019,-28.625676,0.041408951,144.17631,51.336874,0.035253989
47.039823,0.0054940768,0.023268851,-28.614444,0.041980353,144.27227,51.434741,0.035132331
47.139823,0.0054470668,0.025025683,-28.603213,0.042551754,144.39611,51.532609,0.034996581
47.239823,0.0054000568,0.026782516,-28.591982,0.043123155,144.51994,51.630477,0.034860831
47.339823,0.0053530467,0.028539348,-28.578849,0.043694556,144.64378,51.728344,0.03472508
47.439823,0.0053060367,0.03029618,-28.565121,0.044265958,144.6691,51.826212,0.034691749
47.539823,0.0052287456,0.032053012,-28.551392,0.044837359,144.57753,51.92408,0.034710666
47.639823,0.0050797629,0.033809844,-28.537664,0.04540876,144.48596,52.021947,0.034729584
47.739823,0.0049307802,0.035566676,-28.523936,0.045980161,144.3944,52.119815,0.034748501
47.839823,0.0047817976,0.03667721,-28.514503,0.046551562,144.31839,52.217683,0.034703664
47.939823,0.0046328149,0.036199758,-28.506427,0.047122964,144.29346,52.286641,0.034573497
48.039823,0.0044838323,0.035722306,-28.498351,0.047694365,144.26852,52.244485,0.03444333
48.139823,0.0043348496,0.035244854,-28.490276,0.048265766,144.24358,52.202329,0.034313163
48.239823,0.0041858669,0.034767403,-28.4822,0.048837167,144.22054,52.160173,0.034250725
48.339823,0.0040368843,0.034289951,-28.468853,0.049408569,144.41449,52.118017,0.034481334
48.439823,0.0038879016,0.033812499,-28.453828,0.04997997,144.60843,52.075861,0.034711943
48.539823,0.0038341376,0.033335047,-28.438804,0.050551371,144.80238,52.033705,0.034942552
48.639823,0.0038764285,0.032857595,-28.423779,0.051122772,144.99633,51.991549,0.035173161
48.739823,0.0039187194,0.032380143,-28.408754,0.051694173,145.03296,51.949392,0.035177715
48.839823,0.0039610103,0.031061673,-28.402233,0.052265575,145.02817,51.907236,0.035169549
48.939823,0.0040033012,0.029562119,-28.39844,0.052836976,145.02337,51.86508,0.035161383
49.039823,0.0040455921,0.028062565,-28.394647,0.053408377,145.01857,51.822924,0.035153217
49.139823,0.004087883,0.026563011,-28.390854,0.053979778,145.14132,51.780768,0.034986536
49.239823,0.004130174,0.025063458,-28.387061,0.05455118,145.35862,51.738612,0.034752852
49.339823,0.0041724649,0.023563904,-28.373605,0.055122581,145.57592,51.696456,0.034519168
49.439823,0.0042147558,0.02206435,-28.357025,0.055693982,145.79322,51.690014,0.034285485
49.539823,0.004316103,0.020564797,-28.340444,0.056265383,145.94526,51.690014,0.034060264
49.639823,0.0044430254,0.019065243,-28.323863,0.056836784,145.98516,51.690014,0.033844571
49.739823,0.0045699478,0.018064606,-28.307283,0.057408186,146.02506,51.690014,0.033628878
49.839823,0.0046968702,0.017964929,-28.287992,0.057979587,146.06496,51.690014,0.033413185
49.939823,0.0048237926,0.017865252,-28.267817,0.058550988,146.11634,51.690014,0.033197639
50.039823,0.004950715,0.017765575,-28.247643,0.059122389,146.22651,51.690014,0.032982567
50.139823,0.0050776374,0.017665898,-28.227468,0.05969379,146.33667,51.690014,0.032767496
50.239823,0.0052045598,0.01756622,-28.207293,0.060265192,146.44683,51.690014,0.032552425
50.339823,0.0053314822,0.017466543,-28.189814,0.060836593,146.55699,51.690014,0.032337353
50.439823,0.0054584046,0.017366866,-28.173219,0.061407994,146.67525,51.690014,0.032334733
50.539823,0.0053546585,0.017267189,-28.156625,0.061979395,146.7938,51.690014,0.032333454
50.639823,0.005224805,0.017167512,-28.14003,0.062550797,146.91236,51.690014,0.032332175
50.739823,0.0050949514,0.022352641,-28.123436,0.063122198,147.03092,51.690014,0.032330895
50.839823,0.0049650978,0.028189899,-28.107925,0.063670559,147.05789,51.688224,0.032330568
50.939823,0.0048352443,0.034027157,-28.092774,0.064140126,147.05789,51.675337,0.032330568
51.039823,0.0047053907,0.039864416,-28.077622,0.064609692,147.05789,51.66245,0.032330568
51.139823,0.0045755371,0.045701674,-28.062471,0.065079258,147.05789,51.649563,0.032330568
51.239823,0.0044456836,0.051538932,-28.047319,0.065548825,147.17017,51.636676,0.032331768
51.339823,0.00431583,0.057376191,-28.027673,0.066018391,147.35957,51.623789,0.032334163
51.439823,0.0041933986,0.063213449,-28.006528,0.066487958,147.54897,51.610902,0.032336558
51.539823,0.0041385271,0.069050707,-27.985383,0.066957524,147.73837,51.598015,0.032338952
51.639823,0.0040836556,0.069798123,-27.964238,0.06742709,147.89229,51.585128,0.032340715
51.739823,0.0040287842,0.063652432,-27.943093,0.067896657,147.9998,51.572241,0.032340715
51.839823,0.0039739127,0.057506742,-27.919447,0.068366223,148.10731,51.559354,0.032340715
51.939823,0.0039190412,0.051361051,-27.894959,0.06883579,148.21482,51.546467,0.032340715
52.039823,0.0038641697,0.045215361,-27.870472,0.069305356,148.33974,51.53358,0.032340715
52.139823,0.0038092982,0.03906967,-27.845984,0.069774922,148.50863,51.520693,0.032340715
52.239823,0.0037544267,0.03292398,-27.821497,0.070244489,148.67752,51.507806,0.032340715
52.339823,0.0036995552,0.02677829,-27.797964,0.070714055,148.84641,51.473092,0.032340715
52.439823,0.0036813133,0.020632599,-27.774754,0.071183621,149.01741,51.408238,0.032340715
52.539823,0.0037490192,0.014486909,-27.751545,0.071653188,149.19908,51.343383,0.032185206
52.639823,0.0038167252,0.013933038,-27.728335,0.072122754,149.38075,51.278528,0.031993036
52.739823,0.0038844311,0.013622377,-27.705125,0.072592321,149.56242,51.213673,0.031800866
52.839823,0.0039521371,0.013311716,-27.682744,0.073061887,149.73232,51.148819,0.031608697
52.939823,0.004019843,0.013001055,-27.660646,0.073531453,149.73232,51.083964,0.031530367
53.039823,0.004087549,0.012690394,-27.638548,0.07400102,149.73232,51.019109,0.031530367
53.139823,0.0041552549,0.012379733,-27.61645,0.074470586,149.73232,50.954254,0.031530367
53.239823,0.0042229609,0.012069072,-27.594351,0.074940153,149.73232,50.8894,0.031530367
53.339823,0.0042906669,0.011758411,-27.570795,0.075409719,149.88517,50.824545,0.031530367
53.439823,0.0043740787,0.01144775,-27.546737,0.075879285,150.04572,50.75969,0.031530367
53.539823,0.0044732159,0.011774925,-27.522679,0.076348852,150.20627,50.694835,0.031530367
53.639823,0.0045723531,0.012760986,-27.498621,0.076818418,150.36682,50.629981,0.031530367
53.739823,0.0046714904,0.013747046,-27.474563,0.077287985,150.49196,50.565126,0.031498276
53.839823,0.0047706276,0.014733107,-27.451197,0.077757551,150.61105,50.517991,0.031309804
53.939823,0.0048697648,0.015719168,-27.42807,0.078227117,150.73014,50.489308,0.031121333
54.039823,0.004968902,0.016705229,-27.404943,0.078696684,150.84924,50.460625,0.030932861
54.139823,0.0050680393,0.017691289,-27.381816,0.07916625,150.87704,50.431942,0.030744389
54.239823,0.0051671765,0.01867735,-27.358689,0.079635816,150.87704,50.403258,0.030737294
54.339823,0.0052663137,0.019663411,-27.336158,0.080105383,150.87704,50.374575,0.030737294
54.439823,0.0054638678,0.020690515,-27.313834,0.080574949,150.87704,50.345892,0.030737294
54.539823,0.0057036389,0.023289188,-27.29151,0.081044516,150.87704,50.317209,0.030737294
54.639823,0.0059434099,0.02588786,-27.269187,0.081514082,150.87704,50.288525,0.030594575
54.739823,0.006183181,0.028486532,-27.246863,0.081983648,150.87704,50.259842,0.030405641
54.839823,0.006422952,0.031085205,-27.226294,0.082434356,150.87704,50.231159,0.030216708
54.939823,0.0066627231,0.033683877,-27.206342,0.082820568,150.87704,50.202475,0.030027774
55.039823,0.0069024941,0.03628255,-27.18639,0.08320678,150.87704,50.173792,0.029992178
55.139823,0.0071422652,0.038881222,-27.166438,0.083592993,150.87704,50.145109,0.030078504
55.239823,0.0073820362,0.041479894,-27.146486,0.083979205,150.87704,50.116426,0.030164831
55.339823,0.0076218073,0.044078567,-27.140392,0.084365417,150.94683,50.102723,0.030251157
55.439823,0.0076654137,0.044374051,-27.139211,0.084751629,151.10315,50.102723,0.030373858
55.539823,0.0076870967,0.042852678,-27.13803,0.085137841,151.25947,50.102723,0.030560719
55.639823,0.0077087798,0.041331305,-27.136849,0.085524053,151.41579,50.102723,0.03074758
55.739823,0.0077304629,0.039809932,-27.135668,0.085910265,151.48323,50.102723,0.030934441
55.839823,0.0077521459,0.038288559,-27.120873,0.086296477,151.38756,50.102723,0.031122802
55.939823,0.007773829,0.036767186,-27.101216,0.08668269,151.29189,50.102723,0.031318679
56.039823,0.0077955121,0.035245813,-27.081558,0.087068902,151.19622,50.102723,0.031514557
56.139823,0.0078171951,0.03372444,-27.061901,0.087455114,151.09646,50.102723,0.031710434
56.239823,0.0078388782,0.032203067,-27.042244,0.087841326,150.98461,50.102723,0.031906312
56.339823,0.0078004825,0.031155142,-27.023599,0.088227538,150.87276,50.102723,0.032097688
56.439823,0.0072199463,0.034747244,-27.005319,0.08861375,150.76091,50.102723,0.032288965
56.539823,0.0066394101,0.038339346,-26.987039,0.088999962,150.6462,50.102723,0.032480242
56.639823,0.0060588739,0.041931448,-26.968759,0.089386174,150.51398,50.102723,0.032671519
56.739823,0.0054783377,0.04552355,-26.950479,0.089772387,150.38177,50.102723,0.032743153
56.839823,0.0048978016,0.049115652,-26.940952,0.090158599,150.24955,50.102723,0.03278322
56.939823,0.0043172654,0.052707754,-26.934598,0.090544811,150.11734,50.102723,0.032823286
57.039823,0.0037367292,0.056299856,-26.928244,0.090931023,149.99645,50.102723,0.032863353
57.139823,0.003156193,0.059891958,-26.92189,0.091317235,149.87584,50.102723,0.032904764
57.239823,0.0025756568,0.063484061,-26.915536,0.091703447,149.75524,50.102723,0.032947052
57.339823,0.0021843162,0.071234461,-26.913836,0.092089659,149.63464,50.102723,0.032989339
57.439823,0.0022355235,0.081467552,-26.913836,0.092475871,149.49183,50.102723,0.033031626
57.539823,0.0022867309,0.091700643,-26.913836,0.092862084,149.34345,50.102723,0.033056297
57.639823,0.0023379383,0.10193373,-26.913836,0.093248296,149.19507,50.102723,0.033056297
57.739823,0.0023891457,0.11216683,-26.913836,0.093634508,149.04668,50.102723,0.033056297
57.839823,0.0024403531,0.12239992,-26.913836,0.09402072,148.92527,50.102723,0.033056297
57.939823,0.0024915605,0.13263301,-26.913836,0.094406932,148.82139,50.102723,0.033056297
58.039823,0.0025427679,0.1428661,-26.913836,0.094793144,148.71751,50.102723,0.033056297
58.139823,0.0025939752,0.15309919,-26.913836,0.095179356,148.61363,50.102723,0.033056297
58.239823,0.0026451826,0.15946894,-26.913836,0.095565568,148.56166,50.102723,0.033056297
58.339823,0.0029783889,0.1455142,-26.91926,0.095951781,148.58474,50.102723,0.033056297
58.439823,0.0035939373,0.13155945,-26.926696,0.096337993,148.60781,50.102723,0.033056297
58.539823,0.0042094858,0.11760471,-26.934131,0.096724205,148.63089,50.102723,0.033056297
58.639823,0.0048250342,0.10364997,-26.941567,0.097110417,148.6192,50.102723,0.033056297
58.739823,0.0054405826,0.089695226,-26.949002,0.097496629,148.48375,50.102723,0.033056297
58.839823,0.006056131,0.075740484,-26.95233,0.097867805,148.3483,50.102723,0.033240384
58.939823,0.0066716795,0.061785741,-26.954125,0.098187557,148.21285,50.102723,0.03344879
59.039823,0.0072872279,0.047830999,-26.955919,0.09850731,148.07741,50.102723,0.033657196
59.139823,0.0079027763,0.033876256,-26.957714,0.098827062,148.21201,50.102723,0.033865602
59.239823,0.0085183248,0.03168055,-26.959508,0.099146814,148.34846,50.102723,0.034073717
59.339823,0.0082823064,0.034686935,-26.969791,0.099466567,148.48491,50.102723,0.03428172
59.439823,0.00768131,0.03769332,-26.983266,0.099786319,148.62135,50.102723,0.034489722
59.539823,0.0070803136,0.040699705,-26.996741,0.10010607,148.6489,50.102723,0.034697725
59.639823,0.0064793171,0.04370609,-27.010216,0.10042582,148.6489,50.102723,0.034725222
59.739823,0.0058783207,0.046712475,-27.023691,0.10074558,148.6489,50.102723,0.034609751
59.839823,0.0052773242,0.049718859,-27.041676,0.10106533,148.6489,50.177892,0.034494279
59.939823,0.0046763278,0.052725244,-27.061371,0.10138508,148.66171,50.271402,0.034378807
60.039823,0.0040753313,0.055731629,-27.081065,0.10170483,148.68281,50.364913,0.034329871
60.139823,0.0034743349,0.057735542,-27.100759,0.10202459,148.70391,50.458423,0.034384667
60.239823,0.0028733384,0.056323056,-27.120454,0.10234434,148.72502,50.551933,0.034439463
60.339823,0.0027688605,0.054910569,-27.131764,0.10266409,148.71535,50.645443,0.034494258
60.439823,0.0027197522,0.053498082,-27.139874,0.10298384,148.66261,50.738954,0.034493238
60.539823,0.002670644,0.052085596,-27.147984,0.10330359,148.60987,50.832464,0.034289349
60.639823,0.0026215357,0.050673109,-27.156094,0.10362335,148.55713,50.925974,0.03408546
60.739823,0.0025724275,0.049260622,-27.164204,0.1039431,148.51506,51.019485,0.033881571
60.839823,0.0025233192,0.047848136,-27.166456,0.10426285,148.50988,51.112995,0.033685587
60.939823,0.002474211,0.046435649,-27.166456,0.1045826,148.5047,51.206505,0.033685587
61.039823,0.0024251028,0.045023162,-27.166456,0.10490236,148.49952,51.300015,0.033685587
61.139823,0.0023759945,0.045802217,-27.166456,0.10522211,148.49217,51.393526,0.033685587
61.239823,0.0024072412,0.047271708,-27.166456,0.10554186,148.41839,51.47789,0.033685587
61.339823,0.0031669981,0.048741198,-27.166456,0.10586161,148.34461,51.47789,0.033784621
61.439823,0.003926755,0.050210689,-27.166456,0.10618137,148.27083,51.47789,0.033900109
61.539823,0.0046865119,0.05168018,-27.166456,0.10650112,148.19705,51.47789,0.034015598
61.639823,0.0054462688,0.05314967,-27.166456,0.10682087,148.12129,51.47789,0.034131086
61.739823,0.0062060258,0.054619161,-27.166456,0.10714062,148.04514,51.47789,0.034080836
61.839823,0.0069657827,0.056088652,-27.171154,0.10746037,147.969,51.47789,0.033949084
61.939823,0.0077255396,0.057558142,-27.177685,0.10778013,147.89285,51.47789,0.033817332
62.039823,0.0084852965,0.05774475,-27.184215,0.10809988,147.8647,51.47789,0.033685579
62.139823,0.0092450534,0.054850665,-27.190746,0.10841963,147.8647,51.47789,0.033692289
62.239823,0.0097545766,0.051956579,-27.197277,0.10873938,147.8647,51.47789,0.033846234
62.339823,0.0096807466,0.049062493,-27.202556,0.10905914,147.8647,51.47789,0.034000178
62.439823,0.0096069166,0.046168408,-27.207345,0.10937889,147.8647,51.47789,0.034154123
62.539823,0.0095330865,0.043274322,-27.212133,0.10969864,147.8647,51.47789,0.034307741
62.639823,0.0094592565,0.040380236,-27.216921,0.11001839,147.8647,51.47789,0.03446059
62.739823,0.0093854264,0.037486151,-27.221709,0.11033815,147.8647,51.47789,0.034613439
62.839823,0.0093115964,0.034592065,-27.223067,0.1106468,147.82886,51.47789,0.034766288
62.939823,0.0092377664,0.031697979,-27.223067,0.11091752,147.68814,51.47789,0.034918847
63.039823,0.0091639363,0.030793092,-27.223067,0.11118823,147.54742,51.47789,0.035069113
63.139823,0.0090901063,0.030302097,-27.223067,0.11145895,147.4067,51.47789,0.035219379
63.239823,0.0087931996,0.029811102,-27.223067,0.11172966,147.26626,51.47789,0.035369644
63.339823,0.0082731299,0.029320107,-27.208852,0.11200037,147.13316,51.47789,0.03551991
63.439823,0.0077530602,0.028829112,-27.188974,0.11227109,147.00006,51.47789,0.03570552
63.539823,0.0072329906,0.028338117,-27.169096,0.1125418,146.86697,51.47789,0.035893771
63.639823,0.0067129209,0.027847122,-27.149217,0.11281252,146.73387,51.47789,0.036082022
63.739823,0.0061928512,0.027356127,-27.129339,0.11308323,146.60243,51.47789,0.036270273
63.839823,0.0056727815,0.026865132,-27.118608,0.11335394,146.47144,51.47789,0.036409021
63.939823,0.0051527118,0.027496599,-27.111547,0.11362466,146.34045,51.47789,0.036530886
64.039823,0.0046326422,0.030124111,-27.104486,0.11389537,146.20946,51.47789,0.036652752
64.139823,0.0041125725,0.032751623,-27.097424,0.11416609,146.08058,51.47789,0.036774617
64.239823,0.004029021,0.035379136,-27.090363,0.1144368,145.95372,51.551513,0.036827936
64.339823,0.0041323788,0.038006648,-27.088331,0.11470751,145.82686,51.650019,0.036827936
64.439823,0.0042357367,0.04063416,-27.088331,0.11497823,145.7,51.748525,0.036827936
64.539823,0.0043390946,0.043261672,-27.088331,0.11524894,145.57145,51.847032,0.036827936
64.639823,0.0044424525,0.045889184,-27.088331,0.11551966,145.43683,51.945538,0.036827936
64.739823,0.0045458104,0.048516697,-27.088331,0.11579037,145.30222,52.044044,0.036827936
64.839823,0.0046491683,0.051144209,-27.088331,0.11606108,145.16761,52.14255,0.036827936
64.939823,0.0047525261,0.049210368,-27.088331,0.1163318,145.03299,52.241057,0.036827936
65.039823,0.004855884,0.046730754,-27.088331,0.11660251,145.10747,52.339563,0.036825579
65.139823,0.0049592419,0.04425114,-27.088331,0.11687323,145.20397,52.438069,0.036813681
65.239823,0.0050047147,0.041771526,-27.088331,0.11714394,145.30047,52.536576,0.036801783
65.339823,0.0050437799,0.039291913,-27.088331,0.11741465,145.39697,52.635082,0.036789885
65.439823,0.0050828451,0.036812299,-27.088331,0.11768537,145.43509,52.733588,0.03677911
65.539823,0.0051219102,0.034332685,-27.088331,0.11795608,145.43509,52.832094,0.03684569
65.639823,0.0051609754,0.031853071,-27.088331,0.1182268,145.43509,52.905718,0.036912271
65.739823,0.0052000406,0.029373457,-27.088331,0.11849751,145.43509,52.90068,0.036978852
65.839823,0.0052391058,0.0284813,-27.088331,0.11876822,145.43509,52.895642,0.037045433
