time(s),C_Active,L_Active,itp_Po,itp_Temp,itp_HR,itp_RR,itp_HRV
61.80619,0.0009108941,,-30.08062,0.007886706,114.5292,53.70811,0.004049358
61.90619,0.0008932731,,-30.08189,0.008124203,114.5292,53.70811,0.004033976
62.00619,0.000875652,,-30.08338,0.008361701,114.5292,53.70227,0.004035906
62.10619,0.000860152,,-30.08487,0.008599198,114.5292,53.67044,0.004051286
62.20619,0.0008682209,,-30.08635,0.008836696,114.5292,53.63861,0.004066665
62.30619,0.0008762899,0.06077755,-30.08784,0.009074194,114.5292,53.60677,0.004082044
62.40619,0.0008843588,0.05478896,-30.08932,0.009311691,114.5306,53.57494,0.004097424
62.50619,0.0008924277,0.04880038,-30.0908,0.009549189,114.5426,53.54311,0.004103036
62.60619,0.0009004967,0.04281179,-30.09229,0.009786686,114.5546,53.51127,0.004087657
62.70619,0.0009085656,0.0368232,-30.09377,0.01002418,114.5666,53.47944,0.004072278
62.80619,0.0009166346,0.03083461,-30.09525,0.01026168,114.5786,53.44761,0.004056899
62.90619,0.0009247035,0.02484603,-30.09543,0.01049918,114.5906,53.41578,0.00404152
63.00619,0.0009327724,0.01885744,-30.09543,0.01073668,114.6176,53.38394,0.00402836
63.10619,0.0009551327,0.01286885,-30.09543,0.01097417,114.6465,53.35211,0.00404374
63.20619,0.0009869977,0.006880264,-30.09543,0.01121167,114.6754,53.31891,0.00405912
63.30619,0.001018863,0.004366892,-30.09543,0.01144917,114.7043,53.28382,0.004074499
63.40619,0.001050728,0.003921982,-30.09578,0.01168667,114.7332,53.24873,0.004089879
63.50619,0.001082593,0.003477072,-30.09618,0.01192416,114.7534,53.21364,0.004105259
63.60619,0.001114458,0.003032162,-30.09658,0.01216166,114.769,53.17854,0.004104913
63.70619,0.001146323,0.002587252,-30.09699,0.01239916,114.7845,53.14345,0.004101279
63.80619,0.001178188,0.002142341,-30.09739,0.01263666,114.8001,53.10836,0.004097644
63.90619,0.001210053,0.001697431,-30.09626,0.01287415,114.8157,53.07327,0.004094009
64.00619,0.00123607,0.001252521,-30.0949,0.01311165,114.8291,53.03817,0.004090374
64.10619,0.001218618,0.0008076112,-30.09353,0.01334915,114.8396,53.00308,0.004079853
64.20619,0.001201166,0.0003865272,-30.09217,0.01358665,114.8501,52.96799,0.004064395
64.30619,0.001183714,0.000393373,-30.09081,0.01382063,114.8606,52.9329,0.004048937
64.40619,0.001166262,0.0004002188,-30.09062,0.01401482,114.871,52.93761,0.004033479
64.50619,0.00114881,0.0004070646,-30.09062,0.01420902,114.8788,52.97159,0.004018021
64.60619,0.001131358,0.0004139103,-30.09062,0.01440322,114.8761,53.00557,0.004007805
64.70619,0.001113905,0.0004207561,-30.09062,0.01459742,114.8735,53.03955,0.004007805
64.80619,0.001096453,0.0004276019,-30.09062,0.01479162,114.8708,53.07354,0.004007805
64.90619,0.001079001,0.0004344477,-30.0898,0.01498582,114.8682,53.10752,0.004007805
65.00619,0.001083586,0.0004412934,-30.08885,0.01518002,114.8655,53.1415,0.004007805
65.10619,0.001100751,0.0004481392,-30.0879,0.01537421,114.8436,53.17548,0.004008147
65.20619,0.001117916,0.0004481654,-30.08694,0.01556841,114.8214,53.20947,0.004011671
65.30619,0.001135081,0.0004407679,-30.08599,0.01576261,114.7992,53.24345,0.004015196
65.40619,0.001152246,0.0004333705,-30.08485,0.01595681,114.777,53.27743,0.004018721
65.50619,0.001169411,0.000425973,-30.08368,0.01615101,114.7548,53.31141,0.004022246
65.60619,0.001186576,0.0004185756,-30.08251,0.01634521,114.7375,53.3143,0.004025771
65.70619,0.001203741,0.0004111782,-30.08134,0.01653941,114.7218,53.30939,0.004038049
65.80619,0.001220906,0.0004037807,-30.08018,0.0167336,114.7061,53.30448,0.004051809
65.90619,0.001228886,0.0003963833,-30.07914,0.0169278,114.6905,53.29957,0.004065569
66.00619,0.001186469,0.0003889858,-30.07813,0.017122,114.6748,53.29466,0.004079329
66.10619,0.001144052,0.0003815884,-30.07712,0.0173162,114.6508,53.28976,0.004093089
66.20619,0.001101635,0.0003893781,-30.07611,0.0175104,114.6194,53.28485,0.004102403
66.30619,0.001059218,0.0003987946,-30.0751,0.0177046,114.5879,53.27994,0.004108922
66.40619,0.001016801,0.000408211,-30.07509,0.0178988,114.5565,53.27503,0.004115441
66.50619,0.0009743837,0.0004176274,-30.07529,0.01809299,114.525,53.27012,0.00412196
66.60619,0.0009319668,0.0004270438,-30.07548,0.01828719,114.4944,53.26521,0.00412848
66.70619,0.0008895498,0.0004364602,-30.07567,0.01848139,114.4655,53.26038,0.004132569
66.80619,0.0008471328,0.0004458766,-30.07586,0.01867559,114.4366,53.26038,0.004132569
66.90619,0.0008421117,0.000455293,-30.07584,0.01886979,114.4078,53.26038,0.004132569
67.00619,0.0008553428,0.0004647094,-30.07579,0.01906399,114.3789,53.26038,0.004132569
67.10619,0.000868574,0.0004707121,-30.07573,0.01925819,114.3501,53.26038,0.004132569
67.20619,0.0008818051,0.0004697624,-30.07567,0.01945239,114.3227,53.26038,0.00413057
67.30619,0.0008950363,0.0004688126,-30.07561,0.01964658,114.2954,53.26038,0.004115279
67.40619,0.0009082674,0.0004678629,-30.0756,0.01984078,114.268,53.26038,0.004099988
67.50619,0.0009214986,0.0004669131,-30.0756,0.02003498,114.2406,53.26038,0.004084697
67.60619,0.0009347298,0.0004659634,-30.0756,0.02022918,114.2132,53.26038,0.004069407
67.70619,0.0009479609,0.0004650136,-30.0756,0.02042338,114.1913,53.26038,0.004054116
67.80619,0.0009541536,0.0004640639,-30.0756,0.02061758,114.1705,53.26038,0.004064513
67.90619,0.0009301482,0.0004631141,-30.07585,0.02081178,114.1498,53.26038,0.004078175
68.00619,0.0009061429,0.0004621644,-30.07615,0.02100597,114.129,53.26038,0.004091837
68.10619,0.0008821375,0.0004530265,-30.07646,0.02120017,114.1083,53.26038,0.004105499
68.20619,0.0008581321,0.0004412139,-30.07676,0.02139437,114.0912,53.26038,0.004119161
68.30619,0.0008341268,0.0004294014,-30.07707,0.02158735,114.0769,53.26038,0.004124053
68.40619,0.0008101214,0.0004175888,-30.0774,0.02176654,114.0626,53.26038,0.004124053
68.50619,0.0007861161,0.0004057762,-30.07773,0.02194572,114.0483,53.26038,0.004124053
68.60619,0.0007621107,0.0003939636,-30.07806,0.02212491,114.034,53.26038,0.004124053
68.70619,0.0007381053,0.000382151,-30.0784,0.02230409,114.018,53.26038,0.004124053
68.80619,0.0007444523,0.0003703385,-30.07873,0.02248328,113.9987,53.26038,0.004129961
68.90619,0.0007634282,0.0003585259,-30.07912,0.02266246,113.9794,53.26038,0.004144968
69.00619,0.000782404,0.0003514427,-30.07952,0.02284165,113.9601,53.26038,0.004159974
69.10619,0.0008013799,0.0003659651,-30.07992,0.02302084,113.9407,53.26576,0.004174981
69.20619,0.0008203558,0.0003804876,-30.08032,0.02320002,113.9213,53.27568,0.004189988
69.30619,0.0008393317,0.0003950101,-30.08072,0.02337921,113.9008,53.28559,0.004204954
69.40619,0.0008583076,0.0004095325,-30.0808,0.02355839,113.8802,53.29551,0.004219677
69.50619,0.0008772835,0.000424055,-30.0808,0.02373758,113.8597,53.30543,0.0042344
69.60619,0.0008962594,0.0004385775,-30.0808,0.02391676,113.8391,53.31534,0.004249123
69.70619,0.0009109913,0.0004530999,-30.0808,0.02409595,113.8185,53.32526,0.004263847
69.80619,0.0009110092,0.0004676224,-30.0808,0.02427513,113.7991,53.33518,0.00427857
69.90619,0.000911027,0.0004821449,-30.082,0.02445432,113.7798,53.34509,0.004280223
70.00619,0.0009110448,0.0004846049,-30.0835,0.02463351,113.7606,53.35501,0.004280223
70.10619,0.0009110626,0.0004792123,-30.08499,0.02481269,113.7414,53.36492,0.004280223
70.20619,0.0009110804,0.0004738197,-30.08649,0.02499188,113.7221,53.37484,0.004280223
70.30619,0.0009110982,0.0004684271,-30.08799,0.02517106,113.7022,53.34623,0.004280223
70.40619,0.000911116,0.0004630345,-30.08829,0.02535025,113.6818,53.31005,0.004280223
70.50619,0.0009111339,0.0004576419,-30.08829,0.02552943,113.6613,53.27386,0.004280223
70.60619,0.0009111517,0.0004522493,-30.08829,0.02570862,113.6408,53.23767,0.004280223
70.70619,0.0008854314,0.0004468567,-30.08829,0.02588781,113.6203,53.20149,0.004280223
70.80619,0.0008507137,0.0004414641,-30.08829,0.02606699,113.5999,53.1653,0.004280223
70.90619,0.0008159961,0.0004363069,-30.08862,0.02624618,113.5795,53.12912,0.00428561
71.00619,0.0007812784,0.0004386199,-30.08903,0.02642536,113.5591,53.09293,0.004300057
71.10619,0.0007465607,0.0004409328,-30.08944,0.02660455,113.5387,53.05674,0.004314504
71.20619,0.000711843,0.0004432457,-30.08985,0.02678373,113.5183,53.02056,0.004328951
71.30619,0.0006771253,0.0004455586,-30.09026,0.02696292,113.4982,52.98437,0.004343398
71.40619,0.0006424076,0.0004478716,-30.08921,0.02714211,113.4932,52.95051,0.004356595
71.50619,0.0006076899,0.0004501845,-30.08776,0.02732129,113.4882,52.95665,0.004359997
71.60619,0.0005938055,0.0004524974,-30.08632,0.02750048,113.4832,52.96278,0.004363399
71.70619,0.0006395309,0.0004548103,-30.08487,0.02767966,113.4782,52.96891,0.004366801
71.80619,0.0006852564,0.0004571232,-30.08342,0.02785885,113.4732,52.97504,0.004370203
71.90619,0.0007309818,0.0004544783,-30.0831,0.02803803,113.4549,52.98117,0.004373605
72.00619,0.0007767072,0.0004459522,-30.0831,0.02821722,113.4322,52.9873,0.004374107
72.10619,0.0008224326,0.0004374261,-30.0831,0.02839641,113.4094,52.99343,0.004374107
72.20619,0.0008681581,0.0004289,-30.0831,0.02857559,113.3866,52.99956,0.004374107
72.30619,0.0009138835,0.0004203739,-30.0831,0.02875573,113.3638,53.0057,0.004374107
72.40619,0.0009596089,0.0004118478,-30.08246,0.02894661,113.3482,53.01183,0.004374107
72.50619,0.001005334,0.0004033218,-30.08163,0.02913749,113.3405,53.01796,0.004369258
72.60619,0.001027262,0.0003947957,-30.08081,0.02932837,113.3329,53.02155,0.004361068
72.70619,0.001042395,0.0003862696,-30.07998,0.02951925,113.3252,53.0186,0.004352877
72.80619,0.001057527,0.0003777435,-30.07915,0.02971013,113.3176,53.01566,0.004344687
72.90619,0.001072659,0.0003809324,-30.07842,0.02990101,113.3114,53.01271,0.004336497
73.00619,0.001087791,0.0003856896,-30.0777,0.03009189,113.3114,53.00977,0.004331029
73.10619,0.001102923,0.0003904467,-30.07699,0.03028277,113.3114,53.00683,0.004331029
73.20619,0.001118055,0.0003952039,-30.07628,0.03047365,113.3114,53.00388,0.004331029
73.30619,0.001133188,0.0003999611,-30.07557,0.03066453,113.3114,53.00094,0.004331029
73.40619,0.00114832,0.0004047182,-30.07455,0.03085541,113.3114,52.99799,0.004331029
73.50619,0.001147758,0.0004094754,-30.07344,0.0310463,113.3231,52.99505,0.004331272
73.60619,0.00110991,0.0004142326,-30.07233,0.03123718,113.336,52.9921,0.004334526
73.70619,0.001072062,0.0004189898,-30.07122,0.03142806,113.3488,52.98916,0.00433778
73.80619,0.001034214,0.0004207905,-30.0701,0.03161894,113.3616,52.9707,0.004341034
73.90619,0.0009963657,0.0004159458,-30.06891,0.03180982,113.3745,52.93292,0.004344289
74.00619,0.0009585176,0.0004111012,-30.06769,0.0320007,113.3849,52.89513,0.004347543
74.10619,0.0009206695,0.0004062565,-30.06647,0.03219158,113.3939,52.85734,0.004341377
74.20619,0.0008828214,0.0004014118,-30.06525,0.03238246,113.403,52.81955,0.004333128
74.30619,0.0008449733,0.0003965671,-30.06403,0.03257334,113.412,52.78176,0.00432488
74.40619,0.0008071252,0.0003917224,-30.06286,0.03276422,113.4211,52.74398,0.004316631
74.50619,0.0008391241,0.0003868777,-30.06171,0.0329551,113.4311,52.70619,0.004308383
74.60619,0.0008870591,0.000382033,-30.06057,0.03314598,113.4427,52.6684,0.004313017
74.70619,0.0009349942,0.0003771883,-30.05942,0.03333686,113.4543,52.63061,0.004327573
74.80619,0.0009829292,0.0003779599,-30.05827,0.03352774,113.4659,52.59282,0.00434213
74.90619,0.001030864,0.0003807802,-30.05709,0.03371862,113.4775,52.55504,0.004356686
75.00619,0.001078799,0.0003836005,-30.05591,0.0339095,113.4905,52.53597,0.004371242
75.10619,0.001126734,0.0003864208,-30.05473,0.03410039,113.516,52.53597,0.004379112
75.20619,0.001174669,0.0003892411,-30.05354,0.03429127,113.5416,52.53597,0.004372292
75.30619,0.001222604,0.0003920613,-30.05236,0.03448215,113.5671,52.53597,0.004365472
75.40619,0.001252753,0.0003948816,-30.05101,0.03467303,113.5927,52.53597,0.004358652
75.50619,0.001247253,0.0003977019,-30.0496,0.03486391,113.6183,52.53597,0.004351832
75.60619,0.001241752,0.0004005222,-30.0482,0.03505479,113.6407,52.53597,0.004345436
75.70619,0.001236252,0.000404239,-30.04679,0.03524567,113.6625,52.53597,0.004345436
75.80619,0.001230752,0.0004127562,-30.04538,0.03543655,113.6843,52.53597,0.004345436
75.90619,0.001225251,0.0004212733,-30.04605,0.03562743,113.7062,52.53597,0.004345436
76.00619,0.001219751,0.0004297904,-30.04745,0.03581831,113.728,52.53597,0.004345436
76.10619,0.001214251,0.0004383075,-30.04886,0.03600919,113.755,52.53597,0.004345436
76.20619,0.00120875,0.0004468246,-30.05027,0.03620007,113.7857,52.53597,0.004334909
76.30619,0.00120325,0.0004553418,-30.05168,0.03639306,113.8165,52.53597,0.004321961
76.40619,0.001200646,0.0004638589,-30.05206,0.03660987,113.8472,52.53597,0.004309012
76.50619,0.001198553,0.000472376,-30.05206,0.03682668,113.878,52.53597,0.004296064
76.60619,0.00119646,0.0004808931,-30.05206,0.03704348,113.9075,52.53597,0.004283115
76.70619,0.001194367,0.0004762243,-30.05206,0.03726029,113.9346,52.53597,0.004276599
76.80619,0.001192274,0.0004620781,-30.05206,0.0374771,113.9617,52.53597,0.004275031
76.90619,0.001190181,0.0004479319,-30.05298,0.0376939,113.9887,52.53597,0.004273463
77.00619,0.001188088,0.0004337857,-30.05425,0.03791071,114.0158,52.53597,0.004271894
77.10619,0.001185995,0.0004196395,-30.05553,0.03812752,114.043,52.53597,0.004270326
77.20619,0.001183902,0.0004054933,-30.0568,0.03834433,114.0716,52.53597,0.004264549
77.30619,0.00118566,0.0003913472,-30.05807,0.03856113,114.1002,52.53597,0.004249764
77.40619,0.001194029,0.000377201,-30.05868,0.03877794,114.1287,52.51061,0.004234979
77.50619,0.001202398,0.0003630548,-30.05902,0.03899475,114.1573,52.4704,0.004220195
77.60619,0.001210766,0.0003490307,-30.05936,0.03921156,114.1859,52.4302,0.00420541
77.70619,0.001219135,0.0003508915,-30.0597,0.03942836,114.2134,52.38999,0.004191952
77.80619,0.001227504,0.0003527523,-30.06005,0.03964517,114.2408,52.34979,0.004195498
77.90619,0.001235872,0.000354613,-30.06014,0.03986198,114.2682,52.30958,0.004199043
78.00619,0.001244241,0.0003564738,-30.06014,0.04007879,114.2956,52.26938,0.004202588
78.10619,0.00125261,0.0003583346,-30.06014,0.04029559,114.323,52.22917,0.004206133
78.20619,0.001260978,0.0003601953,-30.06014,0.0405124,114.352,52.18896,0.004209678
78.30619,0.001233889,0.0003620561,-30.06014,0.04072921,114.382,52.14876,0.004222465
78.40619,0.001202226,0.0003639169,-30.06049,0.04094602,114.412,52.10855,0.004237186
78.50619,0.001170563,0.0003657776,-30.06097,0.04116282,114.442,52.06835,0.004251908
78.60619,0.0011389,0.0003706056,-30.06145,0.04137963,114.472,52.02814,0.00426663
78.70619,0.001107237,0.0003793296,-30.06193,0.04159644,114.498,52.02712,0.004281352
78.80619,0.001075574,0.0003880536,-30.06241,0.04181325,114.5175,52.02712,0.00428903
78.90619,0.001043911,0.0003967776,-30.06309,0.04203005,114.5369,52.02712,0.004291631
79.00619,0.001012249,0.0004055016,-30.06384,0.04224686,114.5564,52.02712,0.004294232
79.10619,0.0009805857,0.0004142256,-30.06459,0.04246367,114.5758,52.02712,0.004296833
79.20619,0.0009768864,0.0004229496,-30.06534,0.04268048,114.5923,52.02712,0.004299434
79.30619,0.001014394,0.0004316736,-30.06609,0.04289728,114.5923,52.02712,0.004298184
79.40619,0.001051902,0.0004403976,-30.06631,0.04311409,114.5923,52.02712,0.004289306
79.50619,0.00108941,0.0004491216,-30.06631,0.0433309,114.5923,52.02712,0.004280428
79.60619,0.001126918,0.0004389185,-30.06631,0.04354771,114.5923,52.02712,0.00427155
79.70619,0.001164426,0.0004255493,-30.06631,0.04376451,114.5923,52.02712,0.004262672
79.80619,0.001201934,0.00041218,-30.06631,0.04398132,114.5923,52.02712,0.004255904
79.90619,0.001239442,0.0003988108,-30.06631,0.04419813,114.5923,52.02712,0.004270475
80.00619,0.00127695,0.0003854416,-30.06631,0.04441494,114.5923,52.02712,0.004285046
80.10619,0.001314458,0.0003720723,-30.06631,0.04463174,114.5923,52.02712,0.004299617
80.20619,0.001299619,0.0003587031,-30.06631,0.04484855,114.5923,52.02712,0.004314188
80.30619,0.001280366,0.0003453339,-30.06631,0.04506741,114.587,52.02712,0.004328759
80.40619,0.001261113,0.0003319646,-30.06631,0.04530952,114.5794,52.02712,0.004334504
80.50619,0.00124186,0.0003284559,-30.06631,0.04555163,114.5717,52.02712,0.004338619
80.60619,0.001222607,0.0003499859,-30.06631,0.04579373,114.564,52.02712,0.004342735
80.70619,0.001203354,0.000371516,-30.06631,0.04603584,114.5563,52.02712,0.004346851
80.80619,0.001184101,0.000393046,-30.06631,0.04627795,114.5469,52.02712,0.004350967
80.90619,0.001164847,0.0004145761,-30.06683,0.04652006,114.5353,52.02712,0.004343952
81.00619,0.001145594,0.0004361061,-30.0676,0.04676216,114.5238,52.02712,0.004329456
81.10619,0.001110912,0.0004576362,-30.06836,0.04700427,114.5122,52.02712,0.004314959
81.20619,0.001056517,0.0004791663,-30.06912,0.04724638,114.5007,52.04746,0.004300463
81.30619,0.001002121,0.0005006963,-30.06988,0.04748848,114.4872,52.07918,0.004285966
81.40619,0.0009477263,0.0005222264,-30.06926,0.04773059,114.4666,52.11091,0.004281685
81.50619,0.0008933312,0.0005262228,-30.06799,0.0479727,114.446,52.14263,0.004296217
81.60619,0.000838936,0.0005229644,-30.06672,0.0482148,114.4254,52.17435,0.004310748
81.70619,0.0007845409,0.000519706,-30.06544,0.04845691,114.4048,52.20607,0.004325279
81.80619,0.0007301457,0.0005164477,-30.06417,0.04869902,114.3841,52.2378,0.00433981
81.90619,0.0006757506,0.0005131893,-30.06375,0.04894113,114.3459,52.26952,0.004353916
82.00619,0.0006213554,0.0005099309,-30.06375,0.04918323,114.3072,52.30124,0.004364847
82.10619,0.0006410637,0.0005066725,-30.06375,0.04942534,114.2685,52.33296,0.004375779
82.20619,0.0006640964,0.0005034142,-30.06375,0.04966745,114.2298,52.36468,0.004386711
82.30619,0.0006871291,0.0005001558,-30.06375,0.04990955,114.1911,52.39641,0.004397643
82.40619,0.0007101618,0.000496514,-30.06375,0.05015166,114.1525,52.42242,0.004408575
82.50619,0.0007331945,0.0004903308,-30.06375,0.05039377,114.1139,52.38184,0.004422377
82.60619,0.0007562271,0.0004841476,-30.06375,0.05063587,114.0753,52.34126,0.004436504
82.70619,0.0007792598,0.0004779644,-30.06375,0.05087798,114.0368,52.30068,0.00445063
82.80619,0.0008022925,0.0004717813,-30.06375,0.05112009,113.9982,52.26011,0.004464757
82.90619,0.0008253252,0.0004655981,-30.06378,0.0513622,113.9603,52.21953,0.004478883
83.00619,0.0008553311,0.0004594149,-30.06382,0.0516043,113.9231,52.17895,0.00449521
83.10619,0.0008930602,0.0004532317,-30.06387,0.05184641,113.886,52.13837,0.004512596
83.20619,0.0009307892,0.0004470486,-30.06391,0.05208852,113.8488,52.0978,0.004529982
83.30619,0.0009685183,0.0004408654,-30.06396,0.05233062,113.8116,52.05722,0.004547368
83.40619,0.001006247,0.0004371266,-30.06341,0.05257273,113.7748,52.01664,0.004564755
83.50619,0.001043976,0.0004353362,-30.06254,0.05281484,113.7392,51.97607,0.004581981
83.60619,0.001081705,0.0004335457,-30.06168,0.05305694,113.7036,51.93549,0.004599025
83.70619,0.001119434,0.0004317553,-30.06082,0.05329905,113.668,51.90707,0.004616068
83.80619,0.001157164,0.0004299649,-30.05996,0.05354116,113.6324,51.90524,0.004633111
83.90619,0.001194893,0.0004281744,-30.05965,0.05378326,113.5968,51.9034,0.004650155
84.00619,0.001156875,0.000426384,-30.05965,0.05402537,113.5624,51.90157,0.004667127
84.10619,0.00111824,0.0004245936,-30.05965,0.05426748,113.5282,51.89974,0.004683892
84.20619,0.001079605,0.0004228031,-30.05965,0.05450959,113.494,51.8979,0.004700657
84.30619,0.00104097,0.0004210127,-30.05965,0.05475309,113.4597,51.89607,0.004717421
84.40619,0.001002335,0.0004246566,-30.05942,0.05501244,113.4255,51.89424,0.004734186
84.50619,0.0009637006,0.0004283982,-30.05906,0.05527178,113.3914,51.8924,0.004749047
84.60619,0.0009250658,0.0004321399,-30.0587,0.05553113,113.3572,51.89057,0.004732244
84.70619,0.000886431,0.0004358816,-30.05835,0.05579047,113.3231,51.88874,0.004715441
84.80619,0.0008477962,0.0004396232,-30.05799,0.05604982,113.289,51.8869,0.004698638
84.90619,0.0008152278,0.0004433649,-30.05706,0.05630917,113.2549,51.88507,0.004681835
85.00619,0.0007885176,0.0004471066,-30.05581,0.05656851,113.2213,51.8842,0.004665033
85.10619,0.0007618074,0.0004508482,-30.05455,0.05682786,113.1885,51.8842,0.00467746
85.20619,0.0007350973,0.0004545899,-30.0533,0.0570872,113.1557,51.8842,0.004694247
85.30619,0.0007083871,0.0004567117,-30.05205,0.05734655,113.1229,51.8842,0.004711033
