time(s),C_Active,L_Active,itp_Po,itp_Temp,itp_HR,itp_RR,itp_HRV
38.67965,0.007225742,0.0005842939,-26.85582,0.1225005,128.9769,54.94532,0.01876794
38.77965,0.006834139,0.0005618627,-26.87334,0.1244082,128.7257,54.88623,0.01872439
38.87965,0.00725086,0.0005394316,-26.86854,0.1263159,128.4792,54.82714,0.01863399
38.97965,0.00766758,0.0005170004,-26.86371,0.1282236,128.2327,54.76804,0.01854359
39.07965,0.008084301,0.0004945692,-26.85888,0.1301313,127.9861,54.70895,0.01845319
39.17965,0.008501021,0.000472138,-26.85404,0.1320389,127.8052,54.64985,0.01836279
39.27965,0.008917742,0.0004497068,-26.84921,0.1339466,127.7945,54.59076,0.01833243
39.37965,0.009334462,0.0004272756,-26.84919,0.1358543,127.7838,54.53167,0.01833243
39.47965,0.009751183,0.0004048445,-26.84919,0.137762,127.7731,54.47257,0.01833243
39.57965,0.0101679,0.0003824133,-26.84919,0.1396697,127.7623,54.41348,0.01833243
39.67965,0.01058462,0.0003889849,-26.84919,0.1415774,127.7606,54.35438,0.01833761
39.77965,0.01103492,0.000407844,-26.84919,0.1434754,127.7606,54.29529,0.01838031
39.87965,0.01150644,0.0004267031,-26.87336,0.1450727,127.7606,54.2362,0.018423
39.97965,0.01197795,0.0004455622,-26.89775,0.14667,127.7606,54.1771,0.0184657
40.07965,0.01244946,0.0004644214,-26.92214,0.1482673,127.7606,54.12625,0.01850839
40.17965,0.01292097,0.0004832805,-26.94654,0.1498647,127.7606,54.08299,0.01852595
40.27965,0.01339249,0.0005021396,-26.97093,0.151462,127.7606,54.03974,0.01852595
40.37965,0.013864,0.0005209987,-26.97125,0.1530593,127.7606,53.99649,0.01852595
40.47965,0.01433551,0.0005398578,-26.97125,0.1546566,127.7606,53.95323,0.01852595
40.57965,0.01480702,0.0005587169,-26.97125,0.1562539,127.814,53.90998,0.01853215
40.67965,0.0152335,0.0006261405,-26.97125,0.1578512,127.8703,53.86672,0.01862662
40.77965,0.01454162,0.0006978538,-26.97125,0.1594485,127.9266,53.82347,0.01872108
40.87965,0.01384975,0.000769567,-26.97826,0.1610459,127.9829,53.78021,0.01881555
40.97965,0.01315788,0.0008412803,-26.98539,0.1626432,128.0107,53.73696,0.01891002
41.07965,0.01246601,0.0009129936,-26.99253,0.1642405,128.0107,53.69371,0.01900254
41.17965,0.01177413,0.0009847069,-26.99966,0.1658378,128.0107,53.65045,0.01909344
41.27965,0.01108226,0.00105642,-27.00679,0.1674351,128.0107,53.6072,0.01918435
41.37965,0.01039039,0.001128134,-26.99761,0.1690324,128.0107,53.56394,0.01927526
41.47965,0.009698515,0.001199847,-26.98808,0.1706297,128.0107,53.54713,0.01936371
41.57965,0.009006642,0.001255622,-26.97854,0.1722271,128.0107,53.53064,0.01936371
41.67965,0.008499145,0.001208956,-26.96901,0.1738244,128.0107,53.51415,0.01936371
41.77965,0.008203934,0.00116229,-26.95948,0.1754217,128.0107,53.49765,0.01936371
41.87965,0.007908724,0.001115623,-26.98673,0.177019,127.9947,53.48116,0.01936371
41.97965,0.007613514,0.001068957,-27.0149,0.1786163,127.968,53.46467,0.01936371
42.07965,0.007318304,0.001022291,-27.04308,0.1802136,127.9412,53.44817,0.01936371
42.17965,0.007023094,0.0009756248,-27.07125,0.1818109,127.9145,53.43168,0.01936371
42.27965,0.006727883,0.0009289586,-27.09942,0.1834083,127.8841,53.41518,0.01936371
42.37965,0.006432673,0.0008822924,-27.07874,0.1850056,127.8262,53.39869,0.01936371
42.47965,0.006137463,0.0008356262,-27.05663,0.1866029,127.7684,53.3822,0.01947358
42.57965,0.005842253,0.0008043515,-27.03452,0.1882002,127.7105,53.3657,0.01958482
42.67965,0.00572405,0.0008015281,-27.01241,0.1897975,127.6527,53.34921,0.01969605
42.77965,0.005627886,0.0007987047,-26.9903,0.1913948,127.617,53.34207,0.01980728
42.87965,0.005531721,0.0007958813,-26.96307,0.1929921,127.5945,53.34884,0.01987326
42.97965,0.005435557,0.0007930579,-26.93567,0.1945895,127.5719,53.35561,0.01988943
43.07965,0.005339393,0.0007902345,-26.90827,0.1961868,127.5494,53.36238,0.0199056
43.17965,0.005243229,0.0007874111,-26.88087,0.1977841,127.5219,53.36915,0.01992177
43.27965,0.005147064,0.0007845877,-26.85347,0.1993814,127.4599,53.37591,0.01993794
43.37965,0.0050509,0.0007817643,-26.86924,0.2009787,127.398,53.38268,0.01983045
43.47965,0.004954736,0.0007789409,-26.88663,0.202576,127.336,53.38945,0.01971947
43.57965,0.004961062,0.0007553468,-26.90402,0.2041733,127.274,53.39622,0.0196085
43.67965,0.005190206,0.0007159219,-26.92141,0.2057707,127.2348,53.40299,0.01949753
43.77965,0.005419349,0.000676497,-26.9388,0.2073631,127.2098,53.40976,0.01949019
43.87965,0.005648493,0.0006370721,-26.95554,0.2088023,127.1848,53.41653,0.01960101
43.97965,0.005877637,0.0005976473,-26.97225,0.2102414,127.1598,53.42329,0.01971183
44.07965,0.00610678,0.0005582224,-26.98896,0.2116806,127.1295,53.43006,0.01982265
44.17965,0.006335924,0.0005187975,-27.00567,0.2131198,127.0533,53.4251,0.01993347
44.27965,0.006565067,0.0004793726,-27.02238,0.214559,126.977,53.4176,0.02004576
44.37965,0.006794211,0.0004399477,-27.03603,0.2159982,126.9007,53.41009,0.02015811
44.47965,0.007023355,0.0004005228,-27.04955,0.2174374,126.8244,53.40259,0.02027046
44.57965,0.007756158,0.0003882498,-27.06306,0.2188766,126.7649,53.39509,0.02038281
44.67965,0.008667433,0.0003834781,-27.07658,0.2203158,126.7173,53.38758,0.02044381
44.77965,0.009578708,0.0003787064,-27.09009,0.221755,126.6698,53.38008,0.0204374
44.87965,0.01048998,0.0003739347,-27.10264,0.2231941,126.6222,53.37258,0.02043099
44.97965,0.01140126,0.000369163,-27.11515,0.2246333,126.5703,53.36508,0.02042458
45.07965,0.01231253,0.0003643913,-27.12765,0.2260725,126.4501,53.35757,0.02041817
45.17965,0.01322381,0.0003596196,-27.14016,0.2275117,126.3298,53.35007,0.02040843
45.27965,0.01413509,0.000354848,-27.15266,0.2289509,126.2096,53.34257,0.02039831
45.37965,0.01504636,0.0003500763,-27.15157,0.2303901,126.0894,53.33506,0.02038819
45.47965,0.01570501,0.0003453046,-27.14974,0.2318293,125.8713,53.33483,0.02037808
45.57965,0.01506791,0.000352063,-27.14791,0.2332685,125.567,53.35838,0.02036148
45.67965,0.01443081,0.0003588357,-27.14607,0.2347077,125.2626,53.38193,0.0203331
45.77965,0.01379371,0.0003656085,-27.14424,0.2361469,124.9582,53.40549,0.02030472
45.87965,0.01315661,0.0003723812,-27.12049,0.237586,124.6538,53.42904,0.02027633
45.97965,0.01251951,0.000379154,-27.09544,0.2390252,124.4957,53.45259,0.02024795
46.07965,0.01188242,0.0003859267,-27.0704,0.2404644,124.3419,53.47614,0.02015594
46.17965,0.01124532,0.0003926995,-27.04536,0.2419036,124.1881,53.49969,0.02004805
46.27965,0.01060822,0.0003994722,-27.02032,0.2433428,124.0343,53.52324,0.01994016
46.37965,0.009971122,0.000406245,-27.01592,0.244782,123.9168,53.54679,0.01983227
46.47965,0.009321528,0.0004112499,-27.01282,0.2462212,123.8573,53.57034,0.01974789
46.57965,0.008663135,0.0004097613,-27.00973,0.2476604,123.7979,53.5939,0.01973602
46.67965,0.008004742,0.0004082727,-27.00663,0.2490996,123.7384,53.61745,0.01972415
46.77965,0.007346349,0.0004067841,-27.00353,0.2505387,123.679,53.641,0.01971228
46.87965,0.006687956,0.0004052955,-26.99488,0.2519779,123.6267,53.63946,0.01970041
46.97965,0.006029563,0.0004038069,-26.98586,0.2534171,123.5764,53.62544,0.0196942
47.07965,0.00537117,0.0004023182,-26.97685,0.2548563,123.5262,53.61142,0.01969054
47.17965,0.004712777,0.0004008296,-26.96783,0.2562955,123.476,53.5974,0.01968688
47.27965,0.004054384,0.000399341,-26.95881,0.2577347,123.4394,53.58339,0.01968322
47.37965,0.003401495,0.0003978524,-26.93518,0.2591739,123.4854,53.56937,0.01968222
47.47965,0.00328142,0.0003985699,-26.9105,0.2606131,123.5313,53.55535,0.01969827
47.57965,0.003161345,0.0004022175,-26.88583,0.2620523,123.5773,53.54133,0.01971432
47.67965,0.00304127,0.0004058652,-26.86115,0.2634915,123.6232,53.52731,0.01973036
47.77965,0.002921196,0.0004095128,-26.83647,0.2649283,123.6318,53.51329,0.01974641
47.87965,0.002801121,0.0004131605,-26.83922,0.2662918,123.6047,53.49928,0.01968831
47.97965,0.002681046,0.0004168082,-26.84405,0.2676553,123.5776,53.48526,0.0195763
48.07965,0.002560971,0.0004204558,-26.84888,0.2690187,123.5506,53.47124,0.01946429
48.17965,0.002440896,0.0004241035,-26.8537,0.2703822,123.5235,53.45271,0.01935228
48.27965,0.002320822,0.0004277511,-26.85853,0.2717457,123.5135,53.36466,0.01924053
48.37965,0.002272875,0.0004313988,-26.85581,0.2731092,123.5063,53.2766,0.0191486
48.47965,0.002319116,0.0004358847,-26.85248,0.2744727,123.499,53.18855,0.01905668
48.57965,0.002365356,0.0004408308,-26.84915,0.2758362,123.4918,53.1005,0.01896475
48.67965,0.002411596,0.0004457769,-26.84582,0.2771996,123.4835,53.01244,0.01887283
48.77965,0.002457837,0.0004507229,-26.84249,0.2785631,123.471,52.92439,0.01877936
48.87965,0.002504077,0.000455669,-26.85151,0.2799266,123.4585,52.83634,0.01868394
48.97965,0.002550318,0.000460615,-26.86158,0.2812901,123.446,52.74828,0.01858851
49.07965,0.002596558,0.0004655611,-26.87165,0.2826536,123.4335,52.66023,0.01849308
49.17965,0.002642798,0.0004705072,-26.88171,0.2840171,123.4273,52.57218,0.01839765
49.27965,0.002689039,0.0004754532,-26.89178,0.2853805,123.4273,52.48412,0.01838478
49.37965,0.00274853,0.0004803993,-26.89261,0.286744,123.4273,52.39607,0.01838478
49.47965,0.002810234,0.000467983,-26.89261,0.2881075,123.4273,52.30801,0.01838478
49.57965,0.002871938,0.0004527669,-26.89261,0.289471,123.4273,52.24287,0.01838478
49.67965,0.002933642,0.0004375508,-26.89261,0.2908345,123.4273,52.24287,0.01835876
49.77965,0.002995346,0.0004223347,-26.89261,0.292198,123.4273,52.24287,0.01826858
49.87965,0.00305705,0.0004071185,-26.91143,0.2935615,123.4273,52.24287,0.01817841
49.97965,0.003118754,0.0003919024,-26.93203,0.2949249,123.4273,52.24287,0.01808824
50.07965,0.003180458,0.0003766863,-26.95263,0.2962884,123.4273,52.24287,0.01799807
50.17965,0.003242162,0.0003614702,-26.97322,0.2976519,123.4273,52.24287,0.01796028
50.27965,0.003248423,0.0003462541,-26.99382,0.2990154,123.4273,52.24287,0.01794356
50.37965,0.003112616,0.0003340456,-26.99567,0.3003789,123.4273,52.24287,0.01792684
50.47965,0.002976809,0.000357609,-26.99567,0.3017424,123.4273,52.24287,0.01791013
50.57965,0.002841002,0.0003811724,-26.99567,0.3031058,123.4273,52.24287,0.0178842
50.67965,0.002705195,0.0004047358,-26.99567,0.3044693,123.4273,52.24287,0.01780166
50.77965,0.002569387,0.0004282993,-26.99567,0.3058328,123.4273,52.24287,0.01771912
50.87965,0.00243358,0.0004518627,-26.99567,0.3071963,123.4273,52.24287,0.01763657
50.97965,0.002297773,0.0004754261,-26.99567,0.3085598,123.4273,52.20655,0.01755403
51.07965,0.002161966,0.0004989896,-26.99567,0.3099233,123.4719,52.11722,0.01746564
51.17965,0.002026159,0.000522553,-26.99567,0.3112867,123.5528,52.02789,0.01737252
51.27965,0.001957139,0.0005461164,-26.99567,0.3126502,123.6337,51.93856,0.0172794
51.37965,0.001916216,0.0005566578,-26.99567,0.3140137,123.7146,51.84923,0.01718629
51.47965,0.001875293,0.0005358952,-26.99567,0.3153772,123.7955,51.7599,0.01709317
51.57965,0.001834371,0.0005151325,-26.99567,0.3167407,123.8795,51.67057,0.01716619
51.67965,0.001793448,0.0004943698,-26.99567,0.3181042,123.9643,51.58124,0.0172445
51.77965,0.001752525,0.0004736072,-26.99567,0.319466,124.0491,51.49192,0.01732281
51.87965,0.001711602,0.0004528445,-26.99699,0.3207754,124.134,51.40259,0.01740112
51.97965,0.00167068,0.0004320818,-26.99846,0.3220848,124.2189,51.31326,0.01748449
52.07965,0.001629757,0.0004113191,-26.99993,0.3233942,124.3058,51.22393,0.01757593
52.17965,0.001628329,0.0003905565,-27.0014,0.3247036,124.3926,51.1346,0.01766736
52.27965,0.001895444,0.0003697938,-27.00287,0.326013,124.4795,51.04527,0.0177588
52.37965,0.002162559,0.0003643488,-27.00969,0.3273224,124.5664,50.95551,0.01785023
52.47965,0.002429673,0.0003736798,-27.01714,0.3286318,124.6483,50.86518,0.01790812
52.57965,0.002696788,0.0003830107,-27.02458,0.3299412,124.718,50.77485,0.01795815
52.67965,0.002963903,0.0003923417,-27.03203,0.3312506,124.7878,50.68452,0.01800819
52.77965,0.003231018,0.0004016727,-27.03948,0.33256,124.8576,50.59418,0.01805822
52.87965,0.003498133,0.0004110036,-27.0638,0.3338694,124.9273,50.50385,0.01811873
52.97965,0.003765248,0.0004203346,-27.09019,0.3351788,124.9918,50.41352,0.01821267
53.07965,0.004032362,0.0004296656,-27.11659,0.3364883,125.0522,50.32319,0.0183066
53.17965,0.004783765,0.0004389965,-27.14298,0.3377977,125.1126,50.23285,0.01840053
53.27965,0.005927783,0.0004483275,-27.16937,0.3391071,125.173,50.14252,0.01849447
53.37965,0.007071801,0.0004455607,-27.15806,0.3404165,125.2333,50.05219,0.01852616
53.47965,0.008215818,0.000438191,-27.14194,0.3417259,125.2197,49.96185,0.01852616
53.57965,0.009359836,0.0004308213,-27.12582,0.3430353,125.1915,49.87152,0.01852616
53.67965,0.01050385,0.0004234516,-27.1097,0.3443447,125.1633,49.78119,0.01852616
53.77965,0.01164787,0.0004160818,-27.09358,0.3456541,125.1352,49.70236,0.01851855
53.87965,0.01279189,0.0004087121,-27.0985,0.3469635,125.1095,49.66391,0.01842201
53.97965,0.01393591,0.0004013424,-27.10621,0.3482729,125.1095,49.62546,0.01832546
54.07965,0.01507992,0.0003939726,-27.11391,0.3495823,125.1095,49.58701,0.01822892
54.17965,0.0144728,0.0003866029,-27.12161,0.3508917,125.1095,49.54856,0.01813237
54.27965,0.01382202,0.0003792332,-27.12932,0.3522011,125.1095,49.51012,0.01803766
54.37965,0.01317124,0.0003758583,-27.13025,0.3535105,125.1034,49.47167,0.0179449
54.47965,0.01252046,0.0003727353,-27.13025,0.3548199,125.0841,49.43322,0.01785214
54.57965,0.01186968,0.0003696123,-27.13025,0.3561294,125.0648,49.39477,0.01775939
54.67965,0.0112189,0.0003664893,-27.13025,0.3574388,125.0455,49.35632,0.01766663
54.77965,0.01056813,0.0003633663,-27.13025,0.3587482,125.0262,49.31787,0.01765556
54.87965,0.009917348,0.0003602433,-27.14661,0.3600576,125.0175,49.27943,0.01765556
54.97965,0.009266569,0.0003571203,-27.1653,0.361367,125.0175,49.24098,0.01765556
55.07965,0.00873738,0.0003539973,-27.18398,0.3626764,125.0175,49.20253,0.01765556
55.17965,0.008391291,0.0003508743,-27.20267,0.3639858,125.0175,49.16408,0.0176402
55.27965,0.008045203,0.0003481738,-27.22136,0.3652952,125.0175,49.11652,0.01758672
55.37965,0.007699115,0.000347759,-27.22376,0.3666046,125.0071,49.06798,0.01753324
55.47965,0.007353026,0.0003473443,-27.22376,0.367914,124.9932,49.01944,0.01747976
55.57965,0.007006938,0.0003469295,-27.22376,0.3692234,124.9793,48.97091,0.01742628
55.67965,0.00666085,0.0003465148,-27.22376,0.3705328,124.9653,48.92237,0.01735864
55.77965,0.006314761,0.0003461,-27.22376,0.3718401,124.9514,48.87384,0.01728507
55.87965,0.005968673,0.0003456852,-27.24812,0.3730792,124.8975,48.8253,0.0172115
55.97965,0.005622585,0.0003452705,-27.2762,0.3743183,124.8408,48.77676,0.01713793
56.07965,0.005503271,0.0003448557,-27.30428,0.3755574,124.7841,48.72823,0.01708718
56.17965,0.005433272,0.000344441,-27.33236,0.3767965,124.7274,48.67969,0.01718673
56.27965,0.005363274,0.0003491924,-27.36043,0.3780356,124.675,48.63115,0.01728627
56.37965,0.005293275,0.000362652,-27.38644,0.3792747,124.6664,48.58262,0.01738581
56.47965,0.005223276,0.0003761117,-27.41212,0.3805138,124.6578,48.53408,0.01748535
56.57965,0.005153277,0.0003895714,-27.4378,0.3817529,124.6492,48.48555,0.01758604
56.67965,0.005083278,0.0004030311,-27.46348,0.382992,124.6406,48.46569,0.01768761
56.77965,0.005013279,0.0004164907,-27.48916,0.3842311,124.6316,48.47113,0.01778919
56.87965,0.00494328,0.0004299504,-27.49276,0.3854702,124.6213,48.47656,0.01789076
56.97965,0.004922841,0.0004434101,-27.49276,0.3867093,124.6111,48.48199,0.01799219
57.07965,0.005055287,0.0004568697,-27.49276,0.3879485,124.6009,48.48742,0.01799376
57.17965,0.005187732,0.0004703294,-27.49276,0.3891876,124.5906,48.49286,0.01799533
57.27965,0.005320178,0.0004729402,-27.49276,0.3904267,124.5756,48.49829,0.0179969
57.37965,0.005452624,0.0004679361,-27.47428,0.3916658,124.5535,48.50372,0.01799847
57.47965,0.00558507,0.0004629321,-27.45269,0.3929049,124.5314,48.50916,0.01799935
57.57965,0.005717516,0.000457928,-27.43111,0.394144,124.5093,48.51459,0.01799935
57.67965,0.005849961,0.0004529239,-27.40952,0.3953831,124.4872,48.52002,0.01799935
57.77965,0.005982407,0.0004479199,-27.38794,0.3966222,124.4499,48.52545,0.01799935
57.87965,0.006114853,0.0004429158,-27.38579,0.3978613,124.4004,48.53089,0.01799935
57.97965,0.006076558,0.0004379118,-27.38699,0.3991004,124.3509,48.53632,0.01799935
58.07965,0.00595305,0.0004329077,-27.3882,0.4003395,124.3013,48.5227,0.01799935
58.17965,0.005829541,0.0004279036,-27.38941,0.4015786,124.2518,48.459,0.01799935
58.27965,0.005706033,0.0004639778,-27.39062,0.4028177,124.2317,48.39529,0.01799935
58.37965,0.005582525,0.0005101404,-27.39334,0.4040569,124.225,48.33158,0.0179706
58.47965,0.005459017,0.000556303,-27.39634,0.405296,124.2182,48.26788,0.01787736
58.57965,0.005335509,0.0006024656,-27.39933,0.4065351,124.2115,48.20417,0.01778411
58.67965,0.005212001,0.0006486282,-27.40233,0.4077742,124.2047,48.14047,0.01769086
58.77965,0.005088492,0.0006947908,-27.40532,0.4090133,124.2279,48.07676,0.01759762
58.87965,0.00498853,0.0007409534,-27.40579,0.4102524,124.2585,48.01305,0.01757262
58.97965,0.005128544,0.000787116,-27.40579,0.4114915,124.2892,47.94935,0.01757262
59.07965,0.005268559,0.0008332786,-27.40579,0.4127306,124.3198,47.88564,0.01757262
59.17965,0.005408573,0.0008776749,-27.40579,0.4139697,124.3505,47.82193,0.01757262
59.27965,0.005548588,0.0008320879,-27.40579,0.4152088,124.3844,47.75823,0.01756564
59.37965,0.005688603,0.000786501,-27.40975,0.4164479,124.4187,47.69452,0.01751778
59.47965,0.005828617,0.0007409141,-27.41447,0.417687,124.4529,47.63082,0.01746992
59.57965,0.005968632,0.0006953272,-27.41918,0.4189262,124.4872,47.65658,0.01742206
59.67965,0.006108646,0.0006497402,-27.42389,0.4201653,124.5199,47.69192,0.0173742
59.77965,0.006248661,0.0006041533,-27.42861,0.4214012,124.5199,47.72725,0.01730405
59.87965,0.006378648,0.0005585664,-27.4365,0.4225395,124.5199,47.76258,0.01721541
59.97965,0.006499063,0.0005129795,-27.44502,0.4236777,124.5199,47.79791,0.01712677
60.07965,0.006619479,0.0004673925,-27.45353,0.424816,124.5199,47.83324,0.01703813
60.17965,0.006739894,0.0004376015,-27.46205,0.4259542,124.5283,47.86858,0.01694949
60.27965,0.00686031,0.0004592057,-27.47056,0.4270925,124.5732,47.90391,0.01688372
60.37965,0.006980725,0.0004808099,-27.46679,0.4282308,124.618,47.93924,0.01681936
60.47965,0.007101141,0.0005024141,-27.46057,0.429369,124.6628,47.97457,0.016755
60.57965,0.007221556,0.0005240183,-27.45434,0.4305073,124.7076,48.0099,0.01669064
60.67965,0.007341972,0.0005456225,-27.44811,0.4316455,124.7521,48.04524,0.01666022
60.77965,0.007462387,0.0005672267,-27.44188,0.4327838,124.7959,48.08057,0.01669748
60.87965,0.007366546,0.0005888309,-27.44307,0.433922,124.8397,48.1159,0.01673474
60.97965,0.00725569,0.0006104351,-27.44579,0.4350603,124.8834,48.07402,0.01677201
61.07965,0.007144835,0.0006320393,-27.44851,0.4361985,124.9272,47.99403,0.01680927
61.17965,0.00703398,0.0006326033,-27.45122,0.4373368,124.9712,47.91403,0.01686361
61.27965,0.006923125,0.0006075486,-27.45394,0.438475,125.0152,47.83404,0.01692448
61.37965,0.00681227,0.0005824938,-27.47183,0.4396133,125.0593,47.75404,0.01698536
61.47965,0.006701415,0.0005574391,-27.49294,0.4407515,125.1034,47.67405,0.01704623
61.57965,0.00659056,0.0005323843,-27.51404,0.4418898,125.1474,47.59405,0.01708983
61.67965,0.006479705,0.0005073296,-27.53515,0.4430281,125.1402,47.51406,0.01699507
61.77965,0.006445071,0.0004822748,-27.55625,0.4441663,125.1196,47.43406,0.01690031
61.87965,0.006546803,0.0004572201,-27.57726,0.4453046,125.0989,47.35407,0.01680556
61.97965,0.006648535,0.0004321653,-27.59824,0.4464428,125.0783,47.27407,0.0167108
62.07965,0.006750267,0.0004071106,-27.61922,0.4475811,125.0582,47.19408,0.01664535
62.17965,0.006851999,0.0004081077,-27.64021,0.4487193,125.0823,47.11408,0.01660999
62.27965,0.006953731,0.0004221605,-27.66119,0.4498576,125.1065,47.03409,0.01657463
62.37965,0.007055463,0.0004362133,-27.64875,0.4509958,125.1306,46.97786,0.01653927
62.47965,0.007157195,0.0004502662,-27.62887,0.4521341,125.1548,46.97976,0.01650392
62.57965,0.007258927,0.000464319,-27.60898,0.4532723,125.1733,46.98165,0.01645662
62.67965,0.007360659,0.0004783718,-27.58909,0.4544106,125.1733,46.98354,0.01640764
62.77965,0.007113877,0.0004924246,-27.56921,0.4555488,125.1733,46.98543,0.01635866
