time(s),C_Active,L_Active,itp_Po,itp_Temp,itp_HR,itp_RR,itp_HRV
45.862094,0.002268668,0.00057875004,-28.656198,0.039081219,140.36632,52.662335,0.0039328524
45.962094,0.0024124455,0.00058359365,-28.656198,0.039933592,140.371,52.609256,0.0039073728
46.062094,0.0024057216,0.00058843725,-28.656198,0.040784926,140.37568,52.556177,0.0038815999
46.162094,0.0023709146,0.00059328086,-28.656198,0.041530255,140.39986,52.503098,0.003855827
46.262094,0.0023361075,0.00059812447,-28.656198,0.042275583,140.42595,52.45002,0.0038300541
46.362094,0.0023013004,0.00060296808,-28.656198,0.043020912,140.45203,52.396941,0.0038050468
46.462094,0.0022664934,0.00060781168,-28.656198,0.043766241,140.47812,52.343862,0.0037835346
46.562094,0.0022316863,0.00061265529,-28.656198,0.04451157,140.49594,52.290783,0.0037620224
46.662094,0.0021968793,0.0006174989,-28.656198,0.045256899,140.50773,52.237704,0.0037405101
46.762094,0.0021620722,0.00073163728,-28.656198,0.046002227,140.51952,52.184625,0.0037189979
46.862094,0.0021272651,0.00095618846,-28.656198,0.046747556,140.53131,52.131546,0.0037174214
46.962094,0.0021257305,0.0011807396,-28.656198,0.047492885,140.5431,52.078467,0.0037212423
47.062094,0.0021830712,0.0014052908,-28.656198,0.048238214,140.5549,52.025389,0.0037250633
47.162094,0.0022404119,0.001629842,-28.656198,0.048983542,140.56669,51.97231,0.0037288843
47.262094,0.0022977526,0.0018543932,-28.656198,0.049728871,140.57848,51.919231,0.0037312029
47.362094,0.0023550933,0.0020789444,-28.649236,0.0504742,140.59028,51.866152,0.0037312029
47.462094,0.002412434,0.0023034955,-28.641655,0.051219529,140.59127,51.863509,0.0037312029
47.562094,0.0024697747,0.0025280467,-28.634074,0.051964857,140.59127,51.863509,0.0037312029
47.662094,0.0025271154,0.0027525979,-28.626493,0.052710186,140.59127,51.863509,0.0037312029
47.762094,0.0025844561,0.0084411671,-28.618912,0.053455515,140.59127,51.863509,0.0037375982
47.862094,0.0026417969,0.01498335,-28.618664,0.054200844,140.60679,51.863509,0.0037440044
47.962094,0.0025664979,0.021525532,-28.619087,0.054946172,140.63331,51.863509,0.0037504106
48.062094,0.0024730022,0.028067715,-28.619509,0.055691501,140.65983,51.863509,0.0037568167
48.162094,0.0023795065,0.034609898,-28.619931,0.05643683,140.68635,51.863509,0.0037489723
48.262094,0.0022860108,0.04115208,-28.620353,0.057182159,140.70497,51.863509,0.0037317253
48.362094,0.0021925151,0.047694263,-28.614712,0.057927487,140.70497,51.863509,0.0037144783
48.462094,0.0020990195,0.054236446,-28.6085,0.058672816,140.70497,51.863509,0.0036972313
48.562094,0.0020055238,0.060778628,-28.602288,0.059418145,140.70497,51.863509,0.0036802867
48.662094,0.0019120281,0.064438024,-28.596076,0.060163474,140.70512,51.863509,0.0036644098
48.762094,0.0018185324,0.05862551,-28.589864,0.060908802,140.72193,51.863509,0.0036485329
48.862094,0.0017734498,0.052812996,-28.587093,0.061654131,140.73874,51.863509,0.003632656
48.962094,0.0018015139,0.047000482,-28.584655,0.06239946,140.75555,51.863509,0.0036167791
49.062094,0.0018295781,0.041187968,-28.582217,0.063144789,140.77236,51.863509,0.0036142081
49.162094,0.0018576423,0.035375454,-28.579779,0.063890118,140.75757,51.863509,0.0036142081
49.262094,0.0018857065,0.02956294,-28.57734,0.064635446,140.73113,51.863509,0.0036142081
49.362094,0.0019137706,0.023750426,-28.57498,0.065380775,140.70469,51.863509,0.0036142081
49.462094,0.0019418348,0.017937912,-28.572627,0.066126104,140.67825,51.863509,0.0036078578
49.562094,0.001969899,0.012125398,-28.570274,0.066871433,140.6539,51.863509,0.0035938889
49.662094,0.0019979631,0.0094043344,-28.567922,0.067616761,140.63231,51.863509,0.00357992
49.762094,0.0020260273,0.0087395035,-28.565569,0.06836209,140.61071,51.863509,0.0035659512
49.862094,0.0022028949,0.0080746725,-28.558077,0.069107419,140.58912,51.863509,0.0035522023
49.962094,0.002393148,0.0074098415,-28.550062,0.069852748,140.57281,51.863509,0.0035408259
50.062094,0.0025834011,0.0067450105,-28.542047,0.070597804,140.59914,51.863509,0.0035294495
50.162094,0.0027736542,0.0060801796,-28.534032,0.071315141,140.62547,51.863509,0.0035180731
50.262094,0.0029639073,0.0054153486,-28.526017,0.072032477,140.6518,51.863509,0.0035066967
50.362094,0.0031541604,0.0047505176,-28.532517,0.072749813,140.67813,51.863509,0.0034933962
50.462094,0.0033444135,0.0040856866,-28.540532,0.073467149,140.69871,51.863509,0.0034792925
50.562094,0.0035346667,0.0034208557,-28.548547,0.074184486,140.71779,51.863509,0.0034651888
50.662094,0.0037249198,0.0060537637,-28.556562,0.074901822,140.73686,51.863509,0.0034510852
50.762094,0.0037333715,0.0087932256,-28.564577,0.075619158,140.75594,51.863509,0.0034374874
50.862094,0.0035070791,0.011532688,-28.569767,0.076336494,140.76592,51.863509,0.0034249717
50.962094,0.0032807867,0.014272149,-28.574654,0.07705383,140.76592,51.863509,0.0034124559
51.062094,0.0030544943,0.017011611,-28.579541,0.077771167,140.76592,51.863509,0.0033999402
51.162094,0.002828202,0.019751073,-28.584429,0.078488503,140.76592,51.863509,0.0033874244
51.262094,0.0026019096,0.022490535,-28.589316,0.079205839,140.7663,51.863509,0.0033931264
51.362094,0.0023756172,0.025229997,-28.595966,0.079923175,140.76866,51.863509,0.0034001895
51.462094,0.0021493248,0.027969459,-28.602809,0.080640512,140.77101,51.863509,0.0034072526
51.562094,0.0019230324,0.028816416,-28.609652,0.081357848,140.77337,51.863509,0.0034143157
51.662094,0.00169674,0.025941991,-28.616495,0.082075184,140.77573,51.863509,0.0034097337
51.762094,0.0016298292,0.023067567,-28.623338,0.08279252,140.78815,51.863509,0.0033952824
51.862094,0.0015706329,0.020193143,-28.617876,0.083509857,140.80241,51.863509,0.0033808311
51.962094,0.0015114367,0.017318718,-28.611033,0.084227193,140.81668,51.853491,0.0033663798
52.062094,0.0014522404,0.014444294,-28.60419,0.084944529,140.83094,51.821153,0.003354102
52.162094,0.0013930441,0.01156987,-28.597347,0.085661865,140.83766,51.788814,0.003354102
52.262094,0.0013338479,0.0086954455,-28.590504,0.086379201,140.83766,51.756476,0.003354102
52.362094,0.0012746516,0.0058210212,-28.589903,0.087096538,140.83766,51.724138,0.003354102
52.462094,0.0012154554,0.0029465969,-28.590019,0.087813874,140.83766,51.691799,0.003354102
52.562094,0.0011562591,0.0021619656,-28.590135,0.08853121,140.83766,51.659461,0.0033636223
52.662094,0.0011355841,0.0022489278,-28.590251,0.089248546,140.83766,51.627122,0.0033761865
52.762094,0.0011580283,0.00233589,-28.590367,0.089965883,140.83766,51.594784,0.0033887508
52.862094,0.0011804724,0.0024228522,-28.590379,0.090683219,140.83766,51.562446,0.003401315
52.962094,0.0012029166,0.0025098145,-28.590379,0.091400555,140.83766,51.530107,0.0034130061
53.062094,0.0012253607,0.0025967767,-28.590379,0.092117891,140.83766,51.497769,0.0034230388
53.162094,0.0012478049,0.0026837389,-28.590379,0.092835227,140.83766,51.465431,0.0034330714
53.262094,0.0012702491,0.0027707011,-28.590379,0.093552564,140.83766,51.433092,0.0034431041
53.362094,0.0012926932,0.0028576634,-28.590379,0.0942699,140.83766,51.400754,0.0034531368
53.462094,0.0013151374,0.0029230632,-28.590379,0.094987236,140.83628,51.368416,0.003453938
53.562094,0.0013375815,0.0027231229,-28.590379,0.095704572,140.83391,51.400357,0.003453938
53.662094,0.0013791949,0.0025231825,-28.590379,0.096421909,140.83155,51.436317,0.003453938
53.762094,0.0014210077,0.0023232422,-28.590379,0.097139245,140.82918,51.472278,0.003453938
53.862094,0.0014628206,0.0021233018,-28.590379,0.097856581,140.82745,51.508238,0.0034629018
53.962094,0.0015046334,0.0019233615,-28.590379,0.098573917,140.82745,51.544199,0.0034810818
54.062094,0.0015464463,0.0017234211,-28.590379,0.099291392,140.82745,51.580159,0.0034992617
54.162094,0.0015882591,0.0015234808,-28.590379,0.100023,140.82745,51.61612,0.0035174416
54.262094,0.001630072,0.0013235404,-28.590379,0.10075461,140.82745,51.65208,0.0035355911
54.362094,0.0016718848,0.0011236001,-28.590379,0.10148623,140.80242,51.688041,0.0035533071
54.462094,0.0017136977,0.0010000707,-28.590379,0.10221784,140.7761,51.724001,0.0035710232
54.562094,0.0017068119,0.00097286676,-28.590379,0.10294945,140.74977,51.759962,0.0035887392
54.662094,0.0016525037,0.00094566287,-28.590379,0.10368106,140.72345,51.795922,0.0036064552
54.762094,0.0015981955,0.00091845898,-28.590379,0.10441267,140.71375,51.831883,0.0036199166
54.862094,0.0015438873,0.00089125509,-28.590379,0.10514428,140.71375,51.867843,0.0036308079
54.962094,0.001489579,0.0008640512,-28.590379,0.10587589,140.71375,51.903804,0.0036416991
55.062094,0.0014352708,0.0008368473,-28.590379,0.1066075,140.71375,51.872154,0.0036525903
55.162094,0.0013809626,0.00080964341,-28.590379,0.10733911,140.71155,51.804364,0.0036643415
55.262094,0.0013266544,0.00078243952,-28.590379,0.10807072,140.70446,51.736575,0.0036798536
55.362094,0.0012723462,0.00075523563,-28.591784,0.10880233,140.69737,51.668786,0.0036953657
55.462094,0.0012194303,0.00077592327,-28.593373,0.10953395,140.69029,51.600996,0.0037108778
55.562094,0.0012216136,0.00080778882,-28.594963,0.11026556,140.6832,51.533207,0.0037263899
55.662094,0.001223797,0.00083965436,-28.596552,0.11099717,140.68311,51.465418,0.0037462414
55.762094,0.0012259804,0.00087151991,-28.598141,0.11172878,140.68311,51.397629,0.0037674842
55.862094,0.0012281638,0.00090338545,-28.604617,0.11246039,140.68311,51.329839,0.0037887269
55.962094,0.0012303472,0.000935251,-28.611747,0.113192,140.68311,51.26205,0.0038099696
56.062094,0.0012325306,0.00096711655,-28.618877,0.11392361,140.66641,51.194261,0.0038296422
56.162094,0.001234714,0.00099898209,-28.626007,0.11465522,140.64238,51.126471,0.0038460844
56.262094,0.0012368973,0.0010308476,-28.633137,0.11538683,140.61836,51.058682,0.0038625265
56.362094,0.0012390807,0.0010490695,-28.640119,0.11611844,140.59434,50.990893,0.0038789687
56.462094,0.0012472885,0.0010048204,-28.647081,0.11685006,140.56847,50.923103,0.0038954108
56.562094,0.0012605752,0.00096057121,-28.654043,0.11758167,140.53984,50.866414,0.0039035765
56.662094,0.0012738618,0.00091632207,-28.661005,0.11831328,140.51121,50.866414,0.0039107856
56.762094,0.0012871485,0.00087207293,-28.667967,0.11904489,140.48257,50.866414,0.0039179947
56.862094,0.0013004352,0.00082782379,-28.669638,0.1197765,140.45394,50.866414,0.0039252038
56.962094,0.0013137219,0.00078357465,-28.670572,0.12050811,140.42534,50.866414,0.0039290584
57.062094,0.0013270086,0.00073932551,-28.671506,0.12123972,140.39673,50.866414,0.0039290584
57.162094,0.0013402953,0.00069507637,-28.67244,0.12197133,140.36813,50.866414,0.0039290584
57.262094,0.001353582,0.00065082723,-28.673374,0.12270294,140.33952,50.866414,0.0039290584
57.362094,0.001362961,0.00061843189,-28.679462,0.12343455,140.31286,50.866414,0.0039286388
57.462094,0.0013112459,0.00059587639,-28.686283,0.12416616,140.28671,50.866414,0.003916215
57.562094,0.0012595308,0.0005733209,-28.693104,0.12489778,140.26055,50.866414,0.0039037912
57.662094,0.0012078157,0.0005507654,-28.699925,0.12562939,140.23439,50.866414,0.0038913673
57.762094,0.0011561005,0.0005282099,-28.706746,0.126361,140.20825,50.866414,0.0038789435
57.862094,0.0011043854,0.00050565441,-28.711496,0.12709261,140.18212,50.866414,0.003866146
57.962094,0.0010526703,0.00048309891,-28.715945,0.12782422,140.15599,50.866414,0.0038531008
58.062094,0.0010009552,0.00046054342,-28.720395,0.12855592,140.12985,50.866414,0.0038400557
58.162094,0.00094924005,0.00043798792,-28.724844,0.12929715,140.10826,50.825067,0.0038270105
58.262094,0.00089752493,0.00041543242,-28.729293,0.13003837,140.10826,50.760334,0.0038129086
58.362094,0.00090033431,0.00042280991,-28.729866,0.13077959,140.10826,50.695602,0.003793358
58.462094,0.0009428432,0.00043299553,-28.729866,0.13152081,140.10826,50.63087,0.0037738073
58.562094,0.00098535208,0.00044318115,-28.729866,0.13226203,140.10826,50.566137,0.0037542567
58.662094,0.001027861,0.00045336677,-28.729866,0.13300325,140.10826,50.501405,0.0037347061
58.762094,0.0010703698,0.00046355238,-28.729866,0.13374448,140.10826,50.436673,0.0037291085
58.862094,0.0011128787,0.000473738,-28.731408,0.1344857,140.10826,50.37194,0.0037291085
58.962094,0.0011553876,0.00048392362,-28.733181,0.13522692,140.10826,50.307208,0.0037291085
59.062094,0.0011978965,0.00049410924,-28.734954,0.13596814,140.09183,50.242475,0.0037291085
59.162094,0.0012404054,0.00050429486,-28.736727,0.13670936,140.06557,50.177743,0.0037251817
59.262094,0.0012977663,0.00051192019,-28.738501,0.13745058,140.0393,50.113011,0.003709794
59.362094,0.0014939061,0.00051302608,-28.746016,0.13819181,140.01303,50.048278,0.0036944063
59.462094,0.001690046,0.00051413197,-28.754413,0.13893303,139.9868,49.983546,0.0036790186
59.562094,0.0018861859,0.00051523785,-28.76281,0.13967425,139.96064,49.918814,0.0036636309
59.662094,0.0020823258,0.00051634374,-28.771206,0.14041547,139.93447,49.854081,0.0036466202
59.762094,0.0022784656,0.00051744963,-28.779603,0.14115669,139.90831,49.847662,0.003629176
59.862094,0.0024746055,0.00051855552,-28.78759,0.14189791,139.88215,49.847662,0.0036117319
59.962094,0.0026707454,0.00051966141,-28.795512,0.14263914,139.85609,49.847662,0.0035942877
60.062094,0.0028668853,0.0005207673,-28.803434,0.14338036,139.83003,49.847662,0.0035827277
60.162094,0.0030630251,0.00052187318,-28.811356,0.14412158,139.80397,49.847662,0.0035827277
60.262094,0.0031652574,0.00053709811,-28.819279,0.1448628,139.77791,49.847662,0.0035827277
60.362094,0.0032083264,0.00055992182,-28.823045,0.14560402,139.75021,49.847662,0.0035827277
60.462094,0.0032513954,0.00058274553,-28.826149,0.14634524,139.72194,49.847662,0.0035827277
60.562094,0.0032944644,0.00060556925,-28.829253,0.14708647,139.69368,49.847662,0.0035985104
60.662094,0.0033375333,0.00062839296,-28.832358,0.14782769,139.66541,49.847662,0.0036160602
60.762094,0.0033806023,0.00065121668,-28.835462,0.14856891,139.63819,49.847662,0.0036336099
60.862094,0.0034236713,0.00067404039,-28.838111,0.14931013,139.61234,49.847662,0.0036511597
60.962094,0.0034667403,0.0006968641,-28.840686,0.15005135,139.58649,49.847662,0.0036520393
61.062094,0.0035098092,0.00071968782,-28.843261,0.15079257,139.56064,49.847662,0.0036344338
61.162094,0.0036007585,0.00076190731,-28.845836,0.1515338,139.5348,49.847662,0.0036168284
61.262094,0.0040112722,0.0019561669,-28.848411,0.15227502,139.50897,49.847662,0.0035992229
61.362094,0.0044217859,0.0031504265,-28.85497,0.15301624,139.48314,49.847662,0.0035827277
61.462094,0.0048322996,0.0043446861,-28.862187,0.15375746,139.45732,49.847662,0.0035827277
61.562094,0.0052428133,0.0055389456,-28.869404,0.15449868,139.43149,49.847662,0.0035827277
61.662094,0.0056533271,0.0067332052,-28.876621,0.1552399,139.39822,49.847662,0.0035827277
61.762094,0.0060638408,0.0079274648,-28.883838,0.15598113,139.36325,49.847662,0.0035827277
61.862094,0.0064743545,0.0091217244,-28.890553,0.15672235,139.32827,49.847662,0.0035852978
61.962094,0.0068848682,0.010315984,-28.897184,0.15746357,139.29329,49.847662,0.003589242
62.062094,0.0072953819,0.011510244,-28.903814,0.15820447,139.27564,49.847662,0.0035931863
62.162094,0.0070782442,0.011997435,-28.910445,0.15891243,139.27564,49.847662,0.0035971305
62.262094,0.0065206011,0.011349269,-28.917076,0.1596204,139.27564,49.847662,0.0035974555
62.362094,0.005962958,0.010701104,-28.918043,0.16032836,139.27564,49.847662,0.0035862865
62.462094,0.0054053149,0.010052939,-28.918043,0.16103633,139.27564,49.847662,0.0035751176
62.562094,0.0048476718,0.0094047741,-28.918043,0.16174429,139.27564,49.847662,0.0035639486
62.662094,0.0042900287,0.0087566089,-28.918043,0.16245225,139.27564,49.847662,0.0035527796
62.762094,0.0037323856,0.0081084438,-28.918043,0.16316022,139.27564,49.847662,0.0035473979
62.862094,0.0031747425,0.0074602786,-28.923325,0.16386818,139.27564,49.847662,0.0035431364
62.962094,0.0026170994,0.0068121135,-28.929525,0.16457615,139.24052,49.847662,0.003538875
63.062094,0.0021393885,0.0061639484,-28.935725,0.16528411,139.20106,49.847662,0.0035346135
63.162094,0.0020657348,0.0061977111,-28.941925,0.16599207,139.1616,49.847662,0.0035260112
63.262094,0.0019920812,0.0064575917,-28.948125,0.16670004,139.12215,49.847662,0.0035118349
63.362094,0.0019184275,0.0067174723,-28.954235,0.167408,139.07518,49.847662,0.0034976587
63.462094,0.0018447739,0.006977353,-28.960328,0.16811597,139.02269,49.847662,0.0034834824
63.562094,0.0017711202,0.0072372336,-28.966422,0.16882393,138.97021,49.847662,0.0034697352
63.662094,0.0016974666,0.0074971142,-28.972515,0.1695319,138.91773,49.847662,0.0034697352
63.762094,0.0016238129,0.0077569948,-28.978608,0.17023986,138.86369,49.847662,0.0034697352
63.862094,0.0015501593,0.0080168754,-28.984718,0.17094782,138.80468,49.847662,0.0034697352
63.962094,0.0014765056,0.0082767561,-28.990831,0.17165579,138.74568,49.847662,0.0034697352
64.062094,0.0014495887,0.0084519397,-28.996943,0.17236375,138.68668,49.847662,0.0034697352
64.162094,0.0014443542,0.0079938315,-29.003056,0.17307172,138.62768,49.847662,0.0034697352
64.262094,0.0014391198,0.0075357232,-29.009169,0.17377968,138.57085,49.847662,0.0034697352
64.362094,0.0014338854,0.007077615,-29.015533,0.17448765,138.51427,49.847662,0.0034697352
64.462094,0.001428651,0.0066195067,-29.021942,0.17519561,138.4577,49.847145,0.0034687142
64.562094,0.0014234165,0.0061613985,-29.028352,0.17590357,138.40112,49.846506,0.0034635992
64.662094,0.0014181821,0.0057032902,-29.034761,0.17661154,138.34339,49.845867,0.0034584841
64.762094,0.0014129477,0.005245182,-29.041171,0.1773195,138.28471,49.845228,0.003453369
64.862094,0.0014077132,0.0047870737,-29.046542,0.17802747,138.22603,49.84459,0.0034482539
64.962094,0.0014006822,0.0043289654,-29.051721,0.17873543,138.16734,49.843951,0.0034527465
65.062094,0.0013864862,0.0039746677,-29.056899,0.17944339,138.10867,49.843312,0.0034598968
65.162094,0.0013722902,0.0037299,-29.062077,0.18015136,138.05005,49.842673,0.0034670471
65.262094,0.0013580942,0.0034851324,-29.067256,0.18085932,137.99143,49.842034,0.0034741975
65.362094,0.0013438982,0.0032403648,-29.072131,0.18156729,137.93281,49.841395,0.00347873
65.462094,0.0013297022,0.0029955971,-29.07695,0.18227525,137.87419,49.840757,0.00347873
65.562094,0.0013155062,0.0027508295,-29.081769,0.18298322,137.81757,49.840118,0.00347873
65.662094,0.0013013102,0.0025060619,-29.086588,0.18369118,137.76135,49.839479,0.00347873
65.762094,0.0012871142,0.0022612942,-29.091407,0.18439914,137.70513,49.83884,0.00347873
65.862094,0.0012729181,0.0020165266,-29.09637,0.18510711,137.64891,49.838201,0.00347873
65.962094,0.0012911755,0.001771759,-29.101361,0.18581507,137.59169,49.841131,0.00347873
66.062094,0.0013221775,0.0016511394,-29.106352,0.18652215,137.53336,49.884464,0.00347873
66.162094,0.0013531795,0.0015518225,-29.111343,0.18713835,137.47503,49.927798,0.00347873
66.262094,0.0013841815,0.0014525057,-29.116334,0.18775455,137.4167,49.971132,0.003471274
66.362094,0.0014151835,0.0013531889,-29.120408,0.18837075,137.35838,50.014466,0.0034571745
66.462094,0.0014461855,0.001253872,-29.124303,0.18898695,137.30011,50.057799,0.003443075
66.562094,0.0014771875,0.0011545552,-29.128199,0.18960315,137.24183,50.101133,0.0034289755
66.662094,0.0015081895,0.0010552383,-29.132094,0.19021935,137.18356,50.144467,0.0034148479
66.762094,0.0015391915,0.00095592151,-29.135989,0.19083555,137.12529,50.187801,0.00340049
66.862094,0.0015490798,0.00085660467,-29.138308,0.19145175,137.07213,50.231135,0.0033861322
66.962094,0.0014901755,0.00077413163,-29.140315,0.19206795,137.02086,50.274468,0.0033717743
67.062094,0.0014312712,0.00075153179,-29.142322,0.19268416,136.96958,50.317802,0.0033574165
67.162094,0.0013723669,0.00072893195,-29.144329,0.19330036,136.9183,50.361136,0.0033529371
67.262094,0.0013134625,0.00070633211,-29.146336,0.19391656,136.86704,50.40447,0.0033529371
67.362094,0.0012545582,0.00068373227,-29.150379,0.19453276,136.81581,50.447804,0.0033529371
67.462094,0.0011956539,0.00066113242,-29.154832,0.19514896,136.76457,50.491137,0.0033529371
67.562094,0.0011367496,0.00063853258,-29.159284,0.19576516,136.71334,50.500612,0.0033509599
67.662094,0.0010778453,0.00061593274,-29.163736,0.19638136,136.66211,50.46622,0.0033435248
